id,attr_time,attr_x,attr_y,attr_z
1,1436291534807,-1.572392,9.588778,0.53929394
2,1436291534808,-1.5227122,9.626487,0.5351041
3,1436291534809,-1.4682442,9.633071,0.5674258
4,1436291534816,-1.5358804,9.642049,0.5327099
5,1436291534834,-1.5759833,9.637859,0.51595044
6,1436291534855,-1.6089035,9.561843,0.52133745
7,1436291534874,-1.6172832,9.543886,0.5009867
8,1436291534899,-1.7190368,9.59177,0.5129577
9,1436291534916,-1.6430209,9.516952,0.5386954
10,1436291534935,-1.5382746,9.521142,0.59256494
11,1436291534955,-1.4688427,9.710882,0.516549
12,1436291534978,-1.4808137,9.730635,0.49799395
13,1436291535003,-1.4862007,9.69113,0.4842273
14,1436291535017,-1.525705,9.615114,0.50876784
15,1436291535035,-1.4736311,9.582193,0.5734113
16,1436291535056,-1.459266,9.601347,0.5793968
17,1436291535076,-1.4191631,9.616311,0.54767364
18,1436291535097,-1.3910311,9.656414,0.5315128
19,1436291535120,-1.3652935,9.671976,0.5267244
20,1436291535144,-1.3862427,9.725247,0.4794389
21,1436291535154,-1.4347254,9.755774,0.4794389
22,1436291535174,-1.4371196,9.715072,0.4782418
23,1436291535194,-1.4454993,9.643246,0.51834464
24,1436291535265,-1.4700398,9.619304,0.52492875
25,1436291535266,-1.5119383,9.653421,0.5069722
26,1436291535267,-1.508347,9.659407,0.50278234
27,1436291535274,-1.5310919,9.633669,0.50397944
28,1436291535294,-1.5562311,9.628283,0.4866215
29,1436291535314,-1.5682021,9.585187,0.49440265
30,1436291535334,-1.5640123,9.545084,0.5189432
31,1436291535354,-1.5873557,9.57561,0.52133745
32,1436291535376,-1.5945383,9.640852,0.52852005
33,1436291535396,-1.543063,9.620501,0.56802434
34,1436291535417,-1.4951789,9.582193,0.5931635
35,1436291535436,-1.4975731,9.696517,0.49440265
36,1436291535457,-1.5532384,9.731832,0.50517654
37,1436291535484,-1.5502456,9.619304,0.55485624
38,1436291535495,-1.5059528,9.582792,0.6015432
39,1436291535514,-1.5113398,9.572617,0.6368576
40,1436291535534,-1.536479,9.58818,0.58777654
41,1436291535554,-1.4969746,9.556456,0.5919664
42,1436291535576,-1.5298948,9.586384,0.55964464
43,1436291535595,-1.5143325,9.637859,0.4938041
44,1436291535615,-1.484405,9.653421,0.4866215
45,1436291535636,-1.460463,9.693524,0.4938041
46,1436291535657,-1.4460979,9.750386,0.47465047
47,1436291535677,-1.417966,9.736021,0.5315128
48,1436291535697,-1.4808137,9.679757,0.52492875
49,1436291535715,-1.5119383,9.589975,0.5398925
50,1436291535737,-1.5059528,9.572617,0.5674258
51,1436291535759,-1.4742297,9.600749,0.59136784
52,1436291535779,-1.4036007,9.61272,0.62249243
53,1436291535799,-1.4107834,9.661202,0.6159084
54,1436291535814,-1.4191631,9.710882,0.5931635
55,1436291535836,-1.4383167,9.657013,0.58777654
56,1436291535859,-1.4879963,9.636662,0.6278794
57,1436291535879,-1.4700398,9.607931,0.6410475
58,1436291535899,-1.4478935,9.522937,0.62249243
59,1436291535917,-1.4490906,9.692925,0.521936
60,1436291535937,-1.5125369,9.758766,0.46627077
61,1436291535958,-1.5903485,9.552266,0.47225627
62,1436291535978,-1.5831659,9.558251,0.50996494
63,1436291535998,-1.5646108,9.611523,0.4854244
64,1436291536018,-1.5358804,9.572019,0.53211135
65,1436291536038,-1.4826094,9.655815,0.56323594
66,1436291536058,-1.4640543,9.722853,0.57400984
67,1436291536075,-1.4502877,9.715671,0.57999533
68,1436291536095,-1.4203602,9.760562,0.55246204
69,1436291536120,-1.42455,9.72824,0.62009823
70,1436291536170,-1.54845,9.549872,0.6266823
71,1436291536171,-1.5556326,9.537302,0.6171055
72,1436291536184,-1.508347,9.522339,0.65541273
73,1436291536197,-1.6226702,9.494206,0.5979519
74,1436291536216,-1.6681601,9.456498,0.54527944
75,1436291536235,-1.6412252,9.412804,0.5907693
76,1436291536256,-1.5023615,9.614515,0.55964464
77,1436291536276,-1.3688848,9.903017,0.6171055
78,1436291536298,-1.3156139,9.667188,0.6380547
79,1436291536315,-1.2785037,9.753978,0.6410475
80,1436291536337,-1.3281834,9.842564,0.5374983
81,1436291536359,-1.3389573,9.587581,0.6332663
82,1436291536377,-1.447295,9.573814,0.6464345
83,1436291536398,-1.4945804,9.709685,0.56922144
84,1436291536419,-1.4065934,9.8042555,0.62249243
85,1436291536437,-1.1749545,9.848549,0.7697359
86,1436291536458,-1.4748282,9.4217825,0.7529764
87,1436291536479,-2.0165164,9.000402,0.748188
88,1436291536497,-1.7483658,9.5732155,0.5081693
89,1436291536519,-1.3377602,10.067618,0.47524905
90,1436291536539,-1.2814964,9.920973,0.5434838
91,1436291536558,-1.7340006,9.414001,0.63087213
92,1436291536581,-1.8130093,9.69532,0.4961983
93,1436291536597,-1.6717514,9.791686,0.4345476
94,1436291536621,-1.472434,9.727043,0.5177461
95,1436291536636,-1.4790181,9.826403,0.5895722
96,1436291536656,-1.6190789,9.61691,0.57999533
97,1436291536676,-2.2278047,8.913613,0.6793547
98,1436291536696,-2.1086931,9.308656,0.47285482
99,1436291536717,-1.9333179,9.448717,0.8146271
100,1436291536736,-1.5711949,9.467871,0.7326257
101,1436291536757,-1.638831,9.598354,0.82001406
102,1436291536779,-1.536479,10.18254,0.74758947
103,1436291536801,-1.4083891,9.687539,0.6374562
104,1436291536874,-1.5149311,9.482835,0.8283938
105,1436291536876,-1.7776948,9.509769,0.5315128
106,1436291536877,-1.7794905,9.461885,0.66139823
107,1436291536878,-1.7130513,9.463681,0.6913257
108,1436291536896,-1.7262194,9.481637,0.64703304
109,1436291536919,-1.6543933,9.506777,0.66379243
110,1436291536936,-1.5071499,9.660006,0.635062
111,1436291536956,-1.4053963,9.683349,0.63206923
112,1436291536981,-1.3401544,9.695918,0.6961141
113,1436291536998,-1.270124,9.730635,0.7344214
114,1436291537018,-1.407192,9.619304,0.78649527
115,1436291537037,-1.3940239,9.539098,0.80564886
116,1436291537056,-1.2916719,9.792285,0.75596917
117,1436291537080,-1.4287399,9.8042555,0.7870938
118,1436291537100,-1.489792,9.7324295,0.7320272
119,1436291537119,-1.3317747,9.681553,0.80325466
120,1436291537137,-1.3796587,9.457695,0.94570965
121,1436291537157,-1.5239093,9.339781,0.82240826
122,1436291537180,-1.3934253,9.855731,0.8230068
123,1436291537200,-1.3784616,9.566033,0.6440403
124,1436291537220,-1.4508862,9.575011,0.6907272
125,1436291537239,-1.5693992,9.720459,0.46088383
126,1436291537258,-1.5801731,9.594165,0.6242881
127,1436291537282,-1.5448587,9.603742,0.6655881
128,1436291537297,-1.4921862,9.601347,0.6823475
129,1436291537319,-1.4999673,9.700109,0.7068881
130,1436291537339,-1.5855601,9.65821,0.6859388
131,1436291537357,-1.5676036,9.606135,0.736217
132,1436291537380,-1.3892355,9.577405,0.81043726
133,1436291537400,-1.2258313,9.704298,0.80924016
134,1436291537420,-1.1827357,9.820416,0.78888947
135,1436291537437,-1.3012487,9.712079,0.8146271
136,1436291537457,-1.4047978,9.615114,0.7882909
137,1436291537478,-1.5508442,9.627684,0.7529764
138,1436291537499,-1.5939398,9.634268,0.6931214
139,1436291537518,-1.489792,9.616311,0.7769185
140,1436291537539,-1.4748282,9.551069,0.830788
141,1436291537607,-1.6005238,9.531916,0.88166475
142,1436291537608,-1.6436194,9.619304,0.83378077
143,1436291537609,-1.6124948,9.706693,0.81043726
144,1436291537617,-1.6220716,9.586982,0.8678981
145,1436291537645,-1.6071079,9.48882,0.9259575
146,1436291537683,-1.6454151,9.444528,0.97862995
147,1436291537684,-1.5310919,9.581595,0.9516952
148,1436291537697,-1.5185224,9.61272,0.9307459
149,1436291537719,-1.4490906,9.640852,0.9415198
150,1436291537738,-1.4490906,9.539697,0.95468795
151,1436291537759,-1.4371196,9.531916,0.94451255
152,1436291537779,-1.5634137,9.5253315,0.92057055
153,1436291537797,-1.6316484,9.537901,0.85652566
154,1436291537820,-1.6903064,9.5253315,0.8475474
155,1436291537838,-1.6490064,9.537901,0.83258367
156,1436291537861,-1.5508442,9.592369,0.83258367
157,1436291537877,-1.5071499,9.607931,0.83856916
158,1436291537898,-1.4718355,9.624691,0.8559271
159,1436291537920,-1.4083891,9.703699,0.8726865
160,1436291537938,-1.3401544,9.68275,0.89303726
161,1436291537960,-1.3976152,9.651027,0.88944596
162,1436291537977,-1.4586674,9.57561,0.8834604
163,1436291537999,-1.4460979,9.522937,0.9151836
164,1436291538021,-1.4431051,9.569624,0.9091981
165,1436291538039,-1.429937,9.589975,0.8984242
166,1436291538061,-1.4305356,9.646238,0.8367735
167,1436291538078,-1.407192,9.6049385,0.80325466
168,1436291538099,-1.4269443,9.642049,0.7685388
169,1436291538120,-1.471237,9.703699,0.74639237
170,1436291538141,-1.4443022,9.634866,0.760159
171,1436291538158,-1.4024036,9.648633,0.8230068
172,1436291538179,-1.4790181,9.586982,0.84694886
173,1436291538199,-1.5101427,9.601347,0.86610246
174,1436291538220,-1.4903905,9.573814,0.87448215
175,1436291538238,-1.4790181,9.580399,0.8631097
176,1436291538304,-1.4532804,9.593566,0.8798691
177,1436291538305,-1.4329298,9.595362,0.87208796
178,1436291538306,-1.4993688,9.601946,0.87687635
179,1436291538318,-1.5221137,9.613917,0.8523358
180,1436291538338,-1.5939398,9.584588,0.86490536
181,1436291538360,-1.5616181,9.583989,0.8631097
182,1436291538377,-1.5304934,9.572617,0.8882488
183,1436291538397,-1.5286977,9.613917,0.8559271
184,1436291538424,-1.5113398,9.560646,0.84575176
185,1436291538438,-1.508347,9.588778,0.8595184
186,1436291538459,-1.4987702,9.6528225,0.79367787
187,1436291538478,-1.5005659,9.670779,0.8451532
188,1436291538498,-1.484405,9.642049,0.8391677
189,1436291538518,-1.4879963,9.637859,0.8451532
190,1436291538540,-1.4167689,9.572019,0.8882488
191,1436291538590,-1.3796587,9.541492,0.8870517
192,1436291538591,-1.395221,9.583391,0.8439561
193,1436291538598,-1.448492,9.683349,0.78290397
194,1436291538618,-1.4293385,9.643246,0.801459
195,1436291538638,-1.4227544,9.668983,0.7284359
196,1436291538658,-1.4802152,9.7162695,0.760159
197,1436291538678,-1.5179238,9.675568,0.7793127
198,1436291538698,-1.4820108,9.598354,0.84455466
199,1436291538719,-1.508347,9.539697,0.87208796
200,1436291538738,-1.5676036,9.597756,0.8607155
201,1436291538763,-1.5029601,9.555858,0.8834604
202,1436291538782,-1.435324,9.556456,0.8858546
203,1436291538798,-1.4562732,9.634268,0.8355764
204,1436291538818,-1.4598645,9.652225,0.8206126
205,1436291538838,-1.4401124,9.650429,0.82240826
206,1436291538858,-1.4814123,9.583391,0.83976626
207,1436291538877,-1.5460558,9.587581,0.8242039
208,1436291538897,-1.5622166,9.575011,0.83258367
209,1436291538917,-1.5831659,9.584588,0.81642276
210,1436291538937,-1.5574282,9.556456,0.83737206
211,1436291538958,-1.5592239,9.554062,0.8439561
212,1436291538977,-1.5903485,9.618107,0.789488
213,1436291539001,-1.5699978,9.6767645,0.74998367
214,1436291539022,-1.5987282,9.685743,0.6925228
215,1436291539037,-1.5759833,9.603742,0.75836337
216,1436291539057,-1.5496471,9.570223,0.7763199
217,1436291539078,-1.5676036,9.545084,0.75477207
218,1436291539100,-1.5897499,9.547478,0.7565677
219,1436291539117,-1.6304513,9.591172,0.7338228
220,1436291539137,-1.5993267,9.534309,0.7134721
221,1436291539157,-1.5783775,9.56304,0.789488
222,1436291539177,-1.5993267,9.548077,0.7134721
223,1436291539197,-1.6298528,9.617508,0.7110779
224,1436291539217,-1.6412252,9.601347,0.70509243
225,1436291539237,-1.5735891,9.622895,0.7356185
226,1436291539257,-1.5113398,9.582193,0.7727286
227,1436291539277,-1.4443022,9.640852,0.76434886
228,1436291539297,-1.3850456,9.665991,0.7942764
229,1436291539318,-1.4652514,9.675568,0.7823054
230,1436291539338,-1.4526819,9.625289,0.7613561
231,1436291539357,-1.4975731,9.573814,0.7679402
232,1436291539379,-1.5646108,9.59177,0.7212533
233,1436291539401,-1.567005,9.607931,0.7164649
234,1436291539420,-1.5275006,9.615114,0.7254431
235,1436291539442,-1.5849615,9.642049,0.7020996
236,1436291539463,-1.5711949,9.56723,0.7356185
237,1436291539481,-1.6077064,9.581595,0.7104794
238,1436291539501,-1.6358383,9.619903,0.6266823
239,1436291539520,-1.6609775,9.635465,0.64942724
240,1436291539541,-1.6675615,9.547478,0.6422446
241,1436291539561,-1.6783354,9.478046,0.59974754
242,1436291539579,-1.9237411,9.592369,0.42197806
243,1436291539606,-2.1655555,9.56723,0.20350714
244,1436291539618,-2.3588872,9.420585,0.077811554
245,1436291539640,-2.6042929,9.393052,-0.026934769
246,1436291539658,-2.753332,9.333197,-0.076614454
247,1436291539679,-2.5863364,9.193136,-0.026934769
248,1436291539698,-2.4301147,9.378088,-0.08319851
249,1436291539723,-2.1888988,9.4774475,-0.15023616
250,1436291539738,-1.6340426,9.218275,-0.089782566
251,1436291539759,-1.0384849,9.266159,0.16639702
252,1436291539782,-0.78170687,9.973047,0.014963761
253,1436291539800,-0.6171055,10.329783,-0.1352724
254,1436291539818,-0.6368576,10.040684,-0.17118542
255,1436291539843,-0.5931635,9.944916,-0.12569559
256,1436291539863,-0.36990416,10.057443,-0.03232172
257,1436291539883,-0.40102878,10.019734,-0.078410104
258,1436291539900,-0.59017074,9.944317,-0.08140286
259,1436291539922,-0.78888947,9.654618,-0.025139118
260,1436291539943,-0.74519527,9.639654,0.17477672
261,1436291539963,-0.4866215,9.719262,0.29747957
262,1436291539979,-0.48003745,9.495404,0.49320555
263,1436291540002,-0.53091425,9.7324295,0.51595044
264,1436291540022,-0.6171055,10.096947,0.55605334
265,1436291540042,-0.7009025,10.059837,0.6422446
266,1436291540063,-0.6841431,9.988011,0.724246
267,1436291540083,-0.8170213,9.783905,0.64583594
268,1436291540103,-0.9091981,9.685144,0.6619968
269,1436291540125,-0.8218097,9.454104,0.6679823
270,1436291540142,-0.50996494,9.246407,0.78410107
271,1436291540161,-0.077213004,9.209895,0.8343793
272,1436291540181,0.35673606,9.321824,0.94092125
273,1436291540208,0.66020113,9.530719,0.86729956
274,1436291540223,1.0127473,9.498397,0.8265981
275,1436291540257,1.3150153,9.39365,0.8098387
276,1436291540264,1.2862848,9.52593,0.7727286
277,1436291540320,0.9648633,9.694721,0.6979098
278,1436291540331,0.90381116,9.844358,0.688333
279,1436291540332,1.2282255,9.929353,0.7799112
280,1436291540343,1.934515,9.920375,1.0259154
281,1436291540361,2.2631192,10.135853,1.1803415
282,1436291540380,2.2625206,10.286089,1.1881226
283,1436291540414,2.6252422,10.761936,1.2126632
284,1436291540420,1.733402,8.090008,2.147599
285,1436291540441,4.0174704,12.288838,2.992752
286,1436291540461,2.4139538,10.314819,0.61171854
287,1436291540492,0.3681085,7.0700774,1.7705121
288,1436291540499,1.8285716,10.66976,1.7944542
289,1436291540520,0.7218518,10.532093,-0.50158525
290,1436291540540,0.22924481,8.682572,2.5486276
291,1436291540560,-0.046686932,8.241441,2.825158
292,1436291540580,0.010773907,9.096769,2.111686
293,1436291540603,0.207697,9.112331,2.3229742
294,1436291540623,0.39205053,9.433753,1.7812861
295,1436291540641,0.30406362,10.035296,1.353921
296,1436291540663,-0.30945057,9.979631,1.1617863
297,1436291540683,-0.31783026,9.5732155,1.4478935
298,1436291540699,-0.31663316,9.780912,1.6591818
299,1436291540724,-0.45010993,10.049662,1.364695
300,1436291540742,-0.27114335,9.941922,1.797447
301,1436291540762,0.5686229,9.921572,2.5198972
302,1436291540780,0.020949265,9.568427,2.5330653
303,1436291540805,-0.6440403,9.0429,2.64679
304,1436291540825,-0.81402856,8.775947,2.7252002
305,1436291540840,-1.4131776,8.862736,2.296638
306,1436291540863,-1.0319009,8.841787,2.2667105
307,1436291540880,-0.16220717,9.415198,2.4744074
308,1436291540900,-0.20590134,9.804854,2.0566192
309,1436291540921,-0.45968673,9.70789,2.0099323
310,1436291540941,-0.25139117,9.572617,2.2996306
311,1436291540963,0.16938977,9.48463,2.8209682
312,1436291540989,-0.20590134,9.476251,2.96881
313,1436291541009,-0.050278235,9.564238,3.0969
314,1436291541020,0.109534726,9.432556,3.2184057
315,1436291541040,-0.54527944,8.88608,3.1016884
316,1436291541060,-0.985214,8.843582,2.6833014
317,1436291541079,-0.9091981,8.41921,2.6132712
318,1436291541104,-0.40521863,8.245032,2.8790276
319,1436291541122,-0.47465047,8.090606,2.5929205
320,1436291541141,-0.5363012,8.680179,2.6144683
321,1436291541163,-0.29328972,9.126697,2.3959973
322,1436291541184,-0.3693056,8.986636,2.1841104
323,1436291541200,-0.82360536,9.044097,2.2026656
324,1436291541224,-1.2234371,8.955511,1.9393034
325,1436291541243,-1.4077905,8.747216,2.0679917
326,1436291541263,-0.7104794,9.207501,2.3026235
327,1436291541285,0.47105917,9.820416,2.40318
328,1436291541303,0.770933,9.790489,2.469619
329,1436291541324,0.44472298,9.827001,2.4319103
330,1436291541377,0.22026655,9.841965,2.271499
331,1436291541378,0.040102877,9.801263,2.1027076
332,1436291541381,0.2777274,9.931747,1.99437
333,1436291541403,0.26396075,10.016742,1.7723078
334,1436291541423,0.0053869537,10.13286,1.745373
335,1436291541444,-0.29807812,10.290278,1.6208745
336,1436291541463,-0.2896984,10.532093,1.4820108
337,1436291541484,-0.82719666,11.667543,1.4945804
338,1436291541504,0.11611878,12.0571995,0.91458505
339,1436291541524,0.2136825,10.697293,0.86610246
340,1436291541544,0.4950012,10.236409,0.15861586
341,1436291541564,0.6937199,11.07438,-0.6817489
342,1436291541584,1.9045875,11.532271,-1.1815386
343,1436291541603,4.1293993,11.355699,-1.282095
344,1436291541623,4.4556093,10.782886,-1.543063
345,1436291541679,3.810372,10.690709,-1.7992426
346,1436291541684,2.9011738,10.022128,-1.9853917
347,1436291541694,1.8447324,9.6288805,-1.6950948
348,1436291541705,1.1779473,9.432556,-1.7770962
349,1436291541722,0.676362,9.594764,-1.5568297
350,1436291541743,0.62368953,9.466075,-1.6807296
351,1436291541761,0.93613285,9.244013,-1.353921
352,1436291541782,1.1420342,9.01776,-1.086369
353,1436291541801,0.91817635,8.9842415,-0.8110358
354,1436291541821,0.6398504,8.724471,-0.48722005
355,1436291541846,0.4938041,8.202535,-0.16699557
356,1436291541862,0.5626374,7.819463,0.14963761
357,1436291541888,0.48961425,7.8188643,0.4285621
358,1436291541916,0.1945289,8.150461,0.47465047
359,1436291541921,-0.3441665,8.330625,0.44831428
360,1436291541941,-0.35314476,8.024167,0.45848963
361,1436291541961,-0.12928689,8.034343,0.49320555
362,1436291541981,-0.3286042,8.336012,0.3453636
363,1436291542001,-0.49200845,8.669404,0.2908955
364,1436291542021,-0.33399114,9.274539,0.516549
365,1436291542041,-0.45669398,9.658808,0.45070848
366,1436291542061,-0.5033809,10.563816,1.055843
367,1436291542081,1.0839748,11.14441,1.3072342
368,1436291542101,0.42078096,12.843097,1.7280151
369,1436291542121,-0.7200562,14.068329,1.423353
370,1436291542140,-0.3321955,16.117167,1.7351977
371,1436291542160,1.4670471,11.525088,0.39504328
372,1436291542180,-0.011971008,10.749367,2.8060043
373,1436291542204,0.18435353,12.0159,1.2378023
374,1436291542224,1.2395979,11.297041,2.3810337
375,1436291542241,1.2593501,10.0664215,3.3686419
376,1436291542262,0.05865794,9.755175,2.6886885
377,1436291542282,-1.0486604,9.751583,2.633622
378,1436291542303,-1.6597804,9.257779,2.7455509
379,1436291542323,-2.391209,9.242816,2.5384524
380,1436291542357,-2.4145525,8.952518,2.1589713
381,1436291542366,-2.0901382,8.176797,1.946486
382,1436291542381,-1.7896658,7.4549456,1.650802
383,1436291542403,-1.2892777,7.1371155,1.4909891
384,1436291542421,-0.635062,7.1867948,1.335366
385,1436291542443,-0.6015432,6.925827,0.94570965
386,1436291542462,-1.0833763,6.6630635,0.6512229
387,1436291542481,-1.79206,6.601413,0.33399114
388,1436291542502,-2.48159,6.7043633,0.10175357
389,1436291542525,-2.926313,7.04434,-0.0053869537
390,1436291542545,-3.369839,7.543531,-0.14784196
391,1436291542565,-3.6343982,7.7464395,-0.22924481
392,1436291542584,-3.5703533,8.2169,0.076614454
393,1436291542605,-2.7485435,8.65863,0.26156655
394,1436291542625,-2.5833437,9.375694,0.19752164
395,1436291542646,-2.8514943,10.5704,-0.34955344
396,1436291542666,-2.4809916,11.625047,-0.4890157
397,1436291542684,-1.9961656,12.61445,-0.36152446
398,1436291542702,-1.4790181,13.652935,-1.0899603
399,1436291542723,-2.1757307,15.862185,-1.0839748
400,1436291542745,0.2160767,14.057555,-4.140772
401,1436291542765,1.8189948,10.520123,-2.6420016
402,1436291542784,2.971803,11.105505,-1.484405
403,1436291542805,4.3077674,13.094487,-3.9564183
404,1436291542826,4.629189,14.586674,-4.5005007
405,1436291542845,3.9246953,12.780848,-3.8953662
406,1436291542866,3.1794999,11.885416,-3.0933087
407,1436291542885,1.9931729,11.398794,-3.2746694
408,1436291542904,1.5131354,9.696517,-2.9017725
409,1436291542925,1.216853,8.115746,-2.2008698
410,1436291542945,1.2515689,7.2262993,-1.9680338
411,1436291542964,1.049259,6.8240733,-1.6891093
412,1436291542985,0.22625206,7.0186024,-1.4999673
413,1436291543056,0.17956513,7.167641,-1.3706805
414,1436291543057,0.16699557,6.731298,-0.90381116
415,1436291543058,0.10474633,6.377555,-0.58657944
