id,attr_time,attr_x,attr_y,attr_z
1,1436185163417,-2.321777,9.217676,1.520318
2,1436185163441,-2.3588872,9.293693,1.5089456
3,1436185163458,-2.3517046,9.303867,1.4742297
4,1436185163478,-2.3876176,9.336788,1.4443022
5,1436185163499,-2.392406,9.354745,1.4454993
6,1436185163520,-2.4313118,9.291298,1.4772224
7,1436185163540,-2.4127567,9.305065,1.489792
8,1436185163561,-2.4247277,9.268554,1.5005659
9,1436185163581,-2.3906105,9.273342,1.5161282
10,1436185163599,-2.3810337,9.275137,1.5352819
11,1436185163619,-2.3588872,9.305663,1.5185224
12,1436185163640,-2.3481133,9.317036,1.5107412
13,1436185163659,-2.3403323,9.324219,1.5197195
14,1436185163680,-2.3540988,9.301474,1.5161282
15,1436185163734,-2.3798366,9.287108,1.4945804
16,1436185163744,-2.4091654,9.247005,1.520318
17,1436185163745,-2.4271219,9.235633,1.5131354
18,1436185163767,-2.4504654,9.258977,1.5221137
19,1436185163778,-2.4432828,9.217676,1.4993688
20,1436185163819,-2.4301147,9.223662,1.5173253
21,1436185163820,-2.460641,9.350554,1.4700398
22,1436185163841,-2.460641,9.307459,1.4556746
23,1436185163859,-2.473809,9.31105,1.4562732
24,1436185163879,-2.4343045,9.229648,1.5065514
25,1436185163906,-2.4007857,9.2308445,1.5215151
26,1436185163921,-2.4061728,9.23264,1.5304934
27,1436185163938,-2.3852234,9.226655,1.5508442
28,1436185163961,-2.3546975,9.229648,1.5825673
29,1436185163981,-2.3026235,9.28232,1.5622166
30,1436185164003,-2.2810757,9.26556,1.5161282
31,1436185164021,-2.2984335,9.394848,1.4754268
32,1436185164041,-2.2786815,9.348759,1.4490906
33,1436185164062,-2.3056161,9.363124,1.4269443
34,1436185164081,-2.327164,9.3661175,1.412579
35,1436185164098,-2.3469162,9.332,1.4514848
36,1436185164121,-2.344522,9.317635,1.453879
37,1436185164139,-2.3415294,9.302073,1.4586674
38,1436185164171,-2.3415294,9.276335,1.471237
39,1436185164231,-2.32058,9.308656,1.4820108
40,1436185164232,-2.3307555,9.341577,1.4754268
41,1436185164233,-2.3630772,9.320028,1.4676456
42,1436185164329,-2.3588872,9.284714,1.471237
43,1436185164330,-2.3708582,9.2865095,1.4814123
44,1436185164331,-2.381632,9.249998,1.4748282
45,1436185164332,-2.4013844,9.252393,1.4772224
46,1436185164333,-2.4019828,9.320028,1.4736311
47,1436185164338,-2.3995886,9.277532,1.4718355
48,1436185164376,-2.3517046,9.221867,1.4496891
49,1436185164378,-2.3660698,9.297284,1.489792
50,1436185164400,-2.3840263,9.3738985,1.4263457
51,1436185164428,-2.4438813,9.343372,1.3874398
52,1436185164440,-2.416348,9.301474,1.4101849
53,1436185164462,-2.3535004,9.241618,1.4431051
54,1436185164482,-2.309806,9.293693,1.42455
55,1436185164501,-2.3415294,9.297284,1.4024036
56,1436185164521,-2.3720553,9.309854,1.4281414
57,1436185164540,-2.3834279,9.304466,1.4269443
58,1436185164562,-2.372654,9.322423,1.3808558
59,1436185164582,-2.3720553,9.267955,1.3682863
60,1436185164603,-2.3798366,9.360131,1.340753
61,1436185164622,-2.4061728,9.331401,1.299453
62,1436185164639,-2.4121583,9.389461,1.2802993
63,1436185164661,-2.420538,9.350554,1.3138182
64,1436185164681,-2.380435,9.3343935,1.316811
65,1436185164699,-2.3840263,9.303867,1.335366
66,1436185164720,-2.391209,9.312846,1.352724
67,1436185164770,-2.3840263,9.309854,1.3664906
68,1436185164771,-2.3630772,9.330803,1.3706805
69,1436185164782,-2.3529017,9.315839,1.3760674
70,1436185164802,-2.3247697,9.331401,1.371279
71,1436185164821,-2.3397336,9.3260145,1.3611037
72,1436185164842,-2.3505075,9.349358,1.3700819
73,1436185164859,-2.344522,9.325416,1.3706805
74,1436185164885,-2.3253684,9.346964,1.3736732
75,1436185164901,-2.3169887,9.339781,1.3772645
76,1436185164923,-2.3229742,9.305663,1.3850456
77,1436185164940,-2.3259668,9.309255,1.3940239
78,1436185164961,-2.343325,9.40203,1.3988123
79,1436185164996,-2.3505075,9.352949,1.359308
80,1436185165000,-2.373851,9.345168,1.3623008
81,1436185165019,-2.3493104,9.279327,1.4377182
82,1436185165039,-2.3535004,9.2547865,1.460463
83,1436185165059,-2.3582888,9.269152,1.4550761
84,1436185165079,-2.3690627,9.270947,1.477821
85,1436185165105,-2.3289597,9.293094,1.4933833
86,1436185165122,-2.3122003,9.279925,1.46585
87,1436185165141,-2.3175871,9.28232,1.4838065
88,1436185165161,-2.3277626,9.335591,1.4401124
89,1436185165181,-2.3906105,9.300277,1.4389153
90,1436185165201,-2.3971944,9.348759,1.4203602
91,1436185165220,-2.3995886,9.283517,1.4502877
92,1436185165295,-2.397793,9.307459,1.460463
93,1436185165296,-2.4091654,9.281721,1.4466964
94,1436185165297,-2.409764,9.272144,1.472434
95,1436185165327,-2.3989902,9.274539,1.4748282
96,1436185165328,-2.4145525,9.291897,1.5029601
97,1436185165343,-2.3995886,9.281721,1.483208
98,1436185165374,-2.3678656,9.2625675,1.484405
99,1436185165380,-2.372654,9.273342,1.4814123
100,1436185165401,-2.3876176,9.279925,1.46585
101,1436185165426,-2.404377,9.240421,1.460463
102,1436185165441,-2.416348,9.283517,1.4496891
103,1436185165459,-2.4091654,9.239224,1.4460979
104,1436185165483,-2.3744495,9.25359,1.4359225
105,1436185165502,-2.3948002,9.332,1.400608
106,1436185165522,-2.384625,9.416395,1.3617022
107,1436185165544,-2.4091654,9.3978405,1.3605051
108,1436185165562,-2.3427265,9.326612,1.4077905
109,1436185165582,-2.2936451,9.289502,1.4341269
110,1436185165603,-2.2960393,9.302073,1.4389153
111,1436185165623,-2.3307555,9.302073,1.4526819
112,1436185165643,-2.3211784,9.307459,1.4736311
113,1436185165665,-2.3253684,9.297882,1.4766239
114,1436185165684,-2.319383,9.269751,1.4616601
115,1436185165703,-2.3822308,9.2865095,1.460463
116,1436185165728,-2.3768437,9.305065,1.4191631
117,1436185165794,-2.4037786,9.32781,1.3862427
118,1436185165795,-2.3900118,9.364322,1.371279
119,1436185165796,-2.3822308,9.314043,1.395221
120,1436185165822,-2.381632,9.318831,1.3970166
121,1436185165823,-2.3864205,9.335591,1.4119805
122,1436185165843,-2.3918076,9.333197,1.4095862
123,1436185165864,-2.393603,9.338584,1.3994108
124,1436185165881,-2.344522,9.303269,1.441908
125,1436185165900,-2.3361423,9.297882,1.4826094
126,1436185165921,-2.3678656,9.309854,1.4598645
127,1436185165941,-2.3953989,9.269152,1.5011644
128,1436185165963,-2.3840263,9.258378,1.5053543
129,1436185165983,-2.384625,9.266758,1.5209166
130,1436185166003,-2.385822,9.305663,1.4999673
131,1436185166023,-2.3535004,9.247604,1.5071499
132,1436185166044,-2.328361,9.217676,1.5185224
133,1436185166064,-2.3780408,9.336788,1.4754268
134,1436185166117,-2.4013844,9.329605,1.4526819
135,1436185166118,-2.4361002,9.294291,1.4209588
136,1436185166120,-2.3918076,9.218874,1.4610616
137,1436185166143,-2.3475149,9.251794,1.4676456
138,1436185166164,-2.308609,9.281123,1.4383167
139,1436185166183,-2.3122003,9.293693,1.4335283
140,1436185166203,-2.336741,9.336189,1.4155718
141,1436185166228,-2.3349452,9.351752,1.401805
142,1436185166295,-2.2780828,9.315839,1.3862427
143,1436185166296,-2.2948422,9.376891,1.353921
144,1436185166297,-2.2942438,9.380483,1.3383588
145,1436185166314,-2.3080103,9.441534,1.3174095
146,1436185166327,-2.284667,9.375694,1.3096284
147,1436185166343,-2.2768857,9.376891,1.3150153
148,1436185166360,-2.2768857,9.3978405,1.3198037
149,1436185166383,-2.315193,9.3738985,1.3329718
150,1436185166401,-2.3289597,9.351153,1.3395559
151,1436185166422,-2.3588872,9.300277,1.3628993
152,1436185166442,-2.3888147,9.295488,1.3730747
153,1436185166461,-2.396596,9.267955,1.3790601
154,1436185166485,-2.397793,9.263166,1.388637
155,1436185166502,-2.380435,9.272743,1.4047978
156,1436185166523,-2.3756466,9.281721,1.4030021
157,1436185166543,-2.3660698,9.303867,1.3670892
158,1436185166564,-2.348712,9.272144,1.3706805
159,1436185166584,-2.3307555,9.270947,1.3724761
160,1436185166604,-2.3768437,9.418191,1.3156139
161,1436185166624,-2.3594859,9.406818,1.2623428
162,1436185166643,-2.3828292,9.387665,1.2467805
163,1436185166664,-2.3720553,9.345766,1.2617443
164,1436185166684,-2.3558946,9.354146,1.2755109
165,1436185166701,-2.3247697,9.357738,1.2808979
166,1436185166724,-2.3403323,9.363124,1.3132197
167,1436185166765,-2.3265655,9.361329,1.3210008
168,1436185166766,-2.3020248,9.378088,1.3467385
169,1436185166790,-2.2786815,9.303269,1.3688848
170,1436185166803,-2.3403323,9.326612,1.3850456
171,1436185166821,-2.2930467,9.314043,1.4089876
172,1436185166841,-2.345719,9.333796,1.3910311
173,1436185166861,-2.3253684,9.340978,1.4095862
174,1436185166883,-2.2870612,9.315839,1.4407109
175,1436185166902,-2.2625206,9.301474,1.4706384
176,1436185166924,-2.2864625,9.3104515,1.4682442
177,1436185166942,-2.303222,9.339781,1.4688427
178,1436185166962,-2.2810757,9.346964,1.4628572
179,1436185166983,-2.2511482,9.342773,1.4544775
180,1436185167003,-2.248754,9.337985,1.448492
181,1436185167024,-2.2631192,9.351752,1.4544775
182,1436185167044,-2.3008277,9.35235,1.4784195
183,1436185167064,-2.3157916,9.335591,1.4969746
184,1436185167084,-2.2768857,9.279925,1.5239093
185,1436185167101,-2.255338,9.252991,1.5406688
186,1436185167123,-2.272696,9.296685,1.5526398
187,1436185167144,-2.2559366,9.329605,1.5442601
188,1436185167163,-2.280477,9.3182335,1.5448587
189,1436185167184,-2.2876596,9.311649,1.5735891
190,1436185167201,-2.243367,9.23264,1.6077064
191,1436185167225,-2.2110453,9.226655,1.6112977
192,1436185167269,-2.2272062,9.241618,1.5795746
193,1436185167270,-2.2505496,9.293094,1.5676036
194,1436185167289,-2.2547395,9.312846,1.5556326
195,1436185167321,-2.247557,9.302073,1.501763
196,1436185167322,-2.2768857,9.336189,1.496376
197,1436185167341,-2.2691047,9.370307,1.42455
198,1436185167369,-2.3169887,9.341577,1.400608
199,1436185167384,-2.3511062,9.434352,1.3748703
200,1436185167405,-2.3642743,9.378687,1.3856442
201,1436185167426,-2.349909,9.349358,1.3826514
202,1436185167443,-2.3511062,9.345168,1.401805
203,1436185167462,-2.3918076,9.323022,1.4161704
204,1436185167484,-2.3774424,9.298481,1.423353
205,1436185167503,-2.396596,9.2625675,1.4520833
206,1436185167523,-2.4349031,9.305065,1.4652514
207,1436185167544,-2.4271219,9.236232,1.4945804
208,1436185167564,-2.3894134,9.230247,1.520318
209,1436185167585,-2.4127567,9.258378,1.5376761
210,1436185167604,-2.4079683,9.288305,1.5304934
211,1436185167624,-2.3714569,9.201516,1.5460558
212,1436185167643,-2.3361423,9.232041,1.5532384
213,1436185167663,-2.3558946,9.3182335,1.5143325
214,1436185167684,-2.372654,9.332,1.4754268
215,1436185167705,-2.3331497,9.303867,1.4610616
216,1436185167723,-2.2816741,9.264363,1.5023615
217,1436185167772,-2.248754,9.285912,1.4987702
218,1436185167775,-2.2517467,9.287108,1.4676456
219,1436185167788,-2.2810757,9.293094,1.4850036
220,1436185167816,-2.2870612,9.315839,1.4586674
221,1436185167823,-2.2744915,9.32362,1.4401124
222,1436185167844,-2.2577322,9.292496,1.4359225
223,1436185167862,-2.220622,9.389461,1.4305356
224,1436185167883,-2.231396,9.366715,1.3628993
225,1436185167907,-2.2343888,9.369708,1.3443443
226,1436185167923,-2.2158337,9.375694,1.3156139
227,1436185167943,-2.2331917,9.431359,1.3036429
228,1436185167965,-2.2679076,9.425972,1.2868834
229,1436185167983,-2.3391352,9.3738985,1.2030864
230,1436185168002,-2.534861,9.374496,1.0935516
231,1436185168023,-2.6312277,9.304466,0.9900024
232,1436185168046,-2.8951883,9.261371,1.0121487
233,1436185168068,-2.782661,9.029133,1.1336545
234,1436185168087,-2.8287494,9.0716305,1.1971009
235,1436185168105,-2.794632,9.127894,1.3503298
236,1436185168122,-2.6599581,9.127894,1.411382
237,1436185168142,-2.4570496,9.1272955,1.5119383
238,1436185168162,-2.1757307,9.305663,1.4975731
239,1436185168182,-1.9656396,9.28232,1.441908
240,1436185168205,-1.8297687,9.179968,1.3934253
241,1436185168256,-1.7609353,9.186552,1.3461399
242,1436185168257,-1.804031,9.226056,1.282095
243,1436185168263,-1.8309658,9.309255,1.158195
244,1436185168282,-1.8028339,9.36073,1.0702082
245,1436185168302,-1.6448165,9.464279,1.0139444
246,1436185168323,-1.5801731,9.57142,0.9959879
247,1436185168342,-1.453879,9.7007065,0.96426475
248,1436185168364,-1.2808979,9.548675,0.95229375
249,1436185168385,-1.1976994,9.551069,0.94810385
250,1436185168410,-1.2593501,9.416994,0.9947908
251,1436185168424,-1.1372458,9.607333,1.0019734
252,1436185168443,-1.3198037,9.146449,1.1055226
253,1436185168464,-1.079785,9.150639,1.0498575
254,1436185168482,-1.0911574,8.70831,1.021127
255,1436185168502,-0.81283146,9.03452,0.8762778
256,1436185168523,-0.4297592,9.405622,0.81522566
257,1436185168544,0.17357962,9.767744,0.6548142
258,1436185168569,0.6159084,9.900024,0.6326678
259,1436185168584,0.9187749,10.178948,0.60214174
260,1436185168606,1.0103531,10.625467,0.6787562
261,1436185168623,1.3946224,10.85531,0.6183026
262,1436185168643,1.5328877,10.362105,0.7308301
263,1436185168663,1.4383167,10.102933,0.84694886
264,1436185168685,1.2006922,9.94312,0.92416185
265,1436185168711,0.99299514,9.771336,0.9720459
266,1436185168772,0.79128367,9.617508,1.0133458
267,1436185168773,0.66738373,9.383475,1.0827777
268,1436185168774,0.59974754,9.263765,1.115698
269,1436185168794,0.5770026,9.383475,1.1492168
270,1436185168804,0.46926352,9.397242,1.2078748
271,1436185168848,0.5602432,9.45171,1.1887212
272,1436185168849,0.7326257,9.623494,1.2210429
273,1436185168864,0.8822633,9.805453,1.2880806
274,1436185168887,1.1097125,9.838373,1.2844892
275,1436185168904,1.3425486,9.986216,1.3509283
276,1436185168924,1.423353,10.011354,1.3575124
277,1436185168944,1.5556326,9.94312,1.4185646
278,1436185168964,1.5705963,9.681553,1.4939818
279,1436185168984,1.4556746,9.426571,1.5400703
280,1436185169003,1.2228385,9.189545,1.5969325
281,1436185169024,1.0684125,9.19134,1.6460136
282,1436185169049,0.9223662,9.180567,1.6651673
283,1436185169066,0.9151836,9.019556,1.6358383
284,1436185169088,0.98940384,8.989629,1.5275006
285,1436185169106,1.1240777,9.242217,1.4101849
286,1436185169123,1.5107412,9.42238,1.2952632
287,1436185169143,1.863886,9.499594,1.2096704
288,1436185169165,2.1386206,9.725247,1.2234371
289,1436185169184,2.3361423,10.018537,1.2593501
290,1436185169236,2.405574,9.79827,1.3138182
291,1436185169334,2.3546975,9.536105,1.4030021
292,1436185169335,2.1817162,9.519944,1.4969746
293,1436185169336,2.1428106,9.48882,1.5711949
294,1436185169337,2.119467,9.630676,1.7046716
295,1436185169338,2.0572178,9.937733,1.8249803
296,1436185169339,1.7375919,10.411186,2.243367
297,1436185169412,1.620276,11.275493,2.4468741
298,1436185169413,1.4867992,11.186309,2.9191303
299,1436185169414,1.7705121,11.551425,2.5701754
300,1436185169415,2.2703018,9.3182335,2.6431987
301,1436185169453,2.3894134,9.190742,2.4720132
302,1436185169454,2.4079683,9.461287,2.1152773
303,1436185169466,2.5181017,9.130288,1.8644845
304,1436185169484,3.115455,8.850765,1.4802152
305,1436185169503,3.2638955,8.482059,1.3862427
306,1436185169523,2.5492263,9.164406,1.4425066
307,1436185169543,1.7651252,9.135675,1.4772224
308,1436185169563,1.2623428,8.689157,1.8656816
309,1436185169583,1.0193313,9.446921,2.0003555
310,1436185169603,0.98461545,9.428367,2.0290859
311,1436185169623,1.2934675,8.905233,2.0590134
312,1436185169643,1.5580268,8.837597,1.882441
313,1436185169664,1.5867572,8.599973,1.7118542
314,1436185169684,1.5921441,8.652046,1.4119805
315,1436185169703,1.5077485,8.813056,1.055843
316,1436185169724,1.4640543,9.336788,0.79726917
317,1436185169744,1.6370354,9.557653,0.62847793
318,1436185169764,1.8525136,9.057863,0.55006784
319,1436185169782,2.2876596,8.349778,0.40641573
320,1436185169802,2.5887306,7.507618,0.47225627
321,1436185169824,2.6910827,7.695563,0.6183026
322,1436185169845,3.115455,8.841188,0.59735334
323,1436185169864,3.5865142,9.11293,0.6799533
324,1436185169882,3.7415388,9.381081,0.87687635
325,1436185169904,3.7582982,9.403826,0.7577648
326,1436185169923,3.5422213,8.782531,0.8391677
327,1436185169944,3.2309752,9.877279,0.96546185
328,1436185169963,2.8395233,10.928932,0.9756372
329,1436185169983,2.3463178,11.171944,1.2192472
330,1436185170002,1.9865888,11.046248,1.1354501
331,1436185170025,1.8369513,9.825804,1.4155718
332,1436185170045,2.0135236,9.655217,1.8602947
333,1436185170064,1.9871874,10.177153,2.2816741
334,1436185170085,2.110489,9.904214,2.6204538
335,1436185170103,2.5743654,9.5385,2.8808231
336,1436185170123,2.7222073,9.531317,3.0232782
337,1436185170143,2.9299042,9.537901,2.7988217
338,1436185170168,3.3105824,8.714894,2.6078842
339,1436185170197,3.620033,8.617331,2.5007436
340,1436185170203,3.477578,8.843582,2.232593
341,1436185170223,3.2052376,8.210316,2.0111294
342,1436185170243,2.8060043,7.976283,1.8393455
343,1436185170263,2.6222494,7.773973,1.4796166
344,1436185170283,2.3110032,7.4950485,1.2521675
345,1436185170305,2.2990322,8.194156,0.96665895
346,1436185170325,2.3959973,8.552089,0.5566519
347,1436185170344,2.508525,8.479664,0.28431144
348,1436185170368,2.992752,8.59698,0.29029694
349,1436185170386,3.071761,8.53892,0.5793968
350,1436185170405,3.0657754,8.228272,0.79487497
351,1436185170426,2.831742,7.454347,1.353921
352,1436185170446,2.2110453,7.392098,1.8118122
353,1436185170468,1.483208,7.74225,2.2212207
354,1436185170484,1.4460979,8.015787,2.179322
355,1436185170507,2.4851813,6.4739213,2.2403743
356,1436185170526,3.1376014,6.154894,2.554613
357,1436185170547,2.834735,8.149862,2.5372553
358,1436185170567,2.967613,8.017583,2.0440497
359,1436185170585,2.8592753,6.7085533,2.1021092
360,1436185170604,2.5743654,7.9182234,2.094328
361,1436185170635,1.5999253,10.26514,2.272696
362,1436185170649,2.0578163,10.85531,2.1679497
363,1436185170671,1.8231846,10.361506,2.385822
364,1436185170684,2.707842,11.025299,1.9321208
365,1436185170708,3.7391446,10.317812,2.2481554
366,1436185170726,2.3104045,12.753314,3.6882677
367,1436185170744,2.5623944,15.726314,2.6503813
368,1436185170764,4.1491513,11.64001,3.4877534
369,1436185170788,4.441244,11.137826,3.5488055
370,1436185170810,5.4378304,12.133814,3.1160536
371,1436185170832,5.9358244,10.44231,2.7940333
372,1436185170851,5.981314,10.356119,1.9003977
373,1436185170866,4.8883615,10.4883995,1.0977415
374,1436185170891,4.140772,9.671976,0.46627077
375,1436185170909,3.5063083,9.185355,-0.010773907
376,1436185170927,3.1453824,9.311649,-0.35314476
377,1436185170948,2.5570073,8.990228,-0.29269117
378,1436185170970,2.19249,8.726267,-0.2172738
379,1436185170990,1.8219875,8.546103,-0.04309563
380,1436185171008,1.6310499,8.473679,0.20171149
381,1436185171029,1.4610616,8.648455,0.4213795
382,1436185171094,1.459266,8.640076,0.58298814
383,1436185171095,1.4526819,8.649054,0.78769237
384,1436185171096,1.673547,8.901043,0.87208796
385,1436185171120,2.1990743,8.613739,0.92775315
386,1436185171126,2.7443538,8.049306,0.97982705
387,1436185171145,3.247136,7.639898,1.0660183
388,1436185171170,3.192668,7.475296,1.1366472
389,1436185171188,2.8431146,7.699154,1.134253
390,1436185171211,2.5731683,7.5626845,0.9415198
391,1436185171228,2.3732524,7.0383544,0.9888053
392,1436185171248,2.088941,7.3968863,0.99898064
393,1436185171268,1.9955671,7.8422074,0.95229375
394,1436185171287,2.132635,7.4447703,1.1073183
395,1436185171307,2.295441,8.166622,1.1917139
396,1436185171325,2.405574,8.189965,1.1899183
397,1436185171346,2.908955,7.845799,1.2330139
398,1436185171371,3.1112652,8.341399,1.2641385
399,1436185171401,3.044826,9.772532,1.3377602
400,1436185171408,3.3530796,10.456676,1.4454993
401,1436185171426,4.023456,10.424355,1.5023615
402,1436185171447,4.5286326,10.684125,1.5442601
403,1436185171465,4.605247,10.828376,1.9315223
404,1436185171487,2.5570073,14.393941,2.4905684
405,1436185171509,5.4168816,13.615825,1.644218
406,1436185171555,4.8775873,9.788693,2.4247277
407,1436185171556,4.5920787,12.580932,1.8590976
408,1436185171573,4.32333,12.105682,1.8782512
409,1436185171600,4.662708,10.69011,1.827973
410,1436185171605,5.201403,10.284293,1.5167267
411,1436185171625,4.83928,9.427169,1.3820529
412,1436185171649,4.4484267,8.725668,1.0181342
413,1436185171665,3.9492357,7.841609,0.78410107
414,1436185171687,3.4392707,7.5824366,0.46208093
415,1436185171711,3.0747535,7.293337,0.3357868
416,1436185171728,2.5755625,7.2352777,0.30585927
417,1436185171748,2.297835,7.073669,0.24061728
418,1436185171766,2.1859062,6.8252707,0.21667525
419,1436185171786,2.3708582,6.7133417,0.06284779
420,1436185171806,2.3181858,6.773795,0.22325931
421,1436185171825,1.8830396,8.307879,0.27832595
422,1436185171851,2.2403743,8.412626,0.40581718
423,1436185171872,2.665345,7.795521,0.6823475
