id,attr_time,attr_x,attr_y,attr_z
1,1436183316116,0.6715736,9.598354,1.347337
2,1436183316136,0.64823014,9.615114,1.3305776
3,1436183316156,0.6691794,9.625289,1.2629414
4,1436183316176,0.64583594,9.642049,1.2539631
5,1436183316196,0.6691794,9.639056,1.2677298
6,1436183316216,0.7038953,9.635465,1.3395559
7,1436183316236,0.7445967,9.609129,1.3156139
8,1436183316257,0.7326257,9.634866,1.1486182
9,1436183316278,0.7074866,9.526528,1.1587936
10,1436183316298,0.6362591,9.642648,1.3946224
11,1436183316321,0.664391,9.632472,1.3174095
12,1436183316338,0.65541273,9.643845,1.1055226
13,1436183316361,0.65062433,9.561843,1.2551602
14,1436183316378,0.6440403,9.562442,1.3862427
15,1436183316396,0.7146692,9.676167,1.2641385
16,1436183316416,0.6823475,9.668983,1.2641385
17,1436183316440,0.670975,9.656414,1.2366052
18,1436183316460,0.6548142,9.630077,1.2246342
19,1436183316479,0.66020113,9.634866,1.2431892
20,1436183316500,0.65421563,9.665991,1.2491747
21,1436183316520,0.66618663,9.655815,1.2012907
22,1436183316539,0.6051345,9.636064,1.2264298
23,1436183316557,0.682946,9.5971575,1.2054806
24,1436183316603,0.6410475,9.5809965,1.2324153
25,1436183316604,0.6667852,9.595362,1.2162545
26,1436183316618,0.729633,9.642049,1.2138603
27,1436183316637,0.7368156,9.671378,1.2042835
28,1436183316661,0.6937199,9.67856,1.2204443
29,1436183316677,0.6889315,9.626487,1.2234371
30,1436183316697,0.6703765,9.618107,1.1893197
31,1436183316718,0.688333,9.630676,1.1821371
32,1436183316738,0.6925228,9.645041,1.1851299
33,1436183316757,0.6536171,9.645041,1.1875241
34,1436183316778,0.66498953,9.647436,1.2312182
35,1436183316800,0.6488287,9.653421,1.3012487
36,1436183316821,0.65421563,9.651626,1.371279
37,1436183316840,0.65660983,9.6767645,1.2797008
38,1436183316861,0.6183026,9.651626,1.228824
39,1436183316880,0.5955577,9.564238,1.2138603
40,1436183316898,0.6356605,9.470863,1.198298
41,1436183316920,0.62249243,9.4774475,1.2389994
42,1436183316939,0.6572084,9.585785,1.2593501
43,1436183316958,0.6278794,9.652225,1.146224
44,1436183316978,0.65242,9.647436,0.94211835
45,1436183316997,0.6679823,9.692925,1.1180922
46,1436183317020,0.6877344,9.628283,1.3389573
47,1436183317038,0.7140707,9.618107,0.94211835
48,1436183317058,0.694917,9.583391,0.9911995
49,1436183317078,0.7212533,9.63726,1.1737574
50,1436183317100,0.7769185,9.688736,1.09834
51,1436183317120,0.7493851,9.727641,1.0295067
52,1436183317140,0.7044938,9.706094,1.0522517
53,1436183317158,0.724246,9.660604,1.0690111
54,1436183317178,0.7128736,9.631275,1.1246762
55,1436183317199,0.682946,9.633669,1.1683705
56,1436183317219,0.7116765,9.595961,1.039682
57,1436183317238,0.6380547,9.628283,1.1994951
58,1436183317262,0.6979098,9.620501,1.06123
59,1436183317323,0.7140707,9.626487,1.2018893
60,1436183317349,0.6488287,9.582792,1.1402385
61,1436183317350,0.6422446,9.588778,1.1695676
62,1436183317351,0.65182143,9.607931,1.186327
63,1436183317359,0.6368576,9.650429,1.1408371
64,1436183317380,0.65421563,9.654618,1.1432313
65,1436183317400,0.6572084,9.631873,1.1162965
66,1436183317420,0.6655881,9.623494,1.0755951
67,1436183317438,0.6655881,9.615114,1.0600328
68,1436183317459,0.6356605,9.643845,1.0576386
69,1436183317480,0.6356605,9.6767645,1.0456676
70,1436183317509,0.6440403,9.657013,1.0414777
71,1436183317518,0.6476316,9.681553,1.0468647
72,1436183317543,0.6715736,9.636662,1.0833763
73,1436183317562,0.6769605,9.618706,1.0929531
74,1436183317581,0.6691794,9.674371,1.0672154
75,1436183317600,0.6392518,9.69532,1.0749966
76,1436183317618,0.6314707,9.743802,1.0049661
77,1436183317640,0.6368576,9.738416,1.0241197
78,1436183317660,0.61530983,9.659407,1.0654198
79,1436183317681,0.62009823,9.639654,1.110311
80,1436183317701,0.6242881,9.662399,1.1061212
81,1436183317721,0.6183026,9.724648,1.0259154
82,1436183317742,0.6380547,9.643845,0.80445176
83,1436183317761,0.5614403,9.61691,1.4095862
84,1436183317779,0.60094464,9.566033,0.9983821
85,1436183317799,0.59615624,9.636064,1.0067618
86,1436183317820,0.54767364,9.634268,1.151611
87,1436183317842,0.5374983,9.652225,1.2042835
88,1436183317861,0.5907693,9.698911,1.1546037
89,1436183317881,0.6440403,9.706094,1.0881647
90,1436183317901,0.635062,9.69113,1.0767922
91,1436183317921,0.60573304,9.649231,1.1767502
92,1436183317942,0.5722142,9.614515,1.2707225
93,1436183317962,0.53809685,9.623494,1.3060371
94,1436183317982,0.62728083,9.667787,1.1198878
95,1436183318002,0.63206923,9.621099,1.1653777
96,1436183318022,0.66858083,9.553463,1.240795
97,1436183318042,0.59256494,9.540296,1.2665327
98,1436183318112,0.56982,9.565434,1.2096704
99,1436183318113,0.5722142,9.568427,1.2306197
100,1436183318114,0.6027403,9.625289,1.2234371
101,1436183318123,0.64463884,9.64145,1.2138603
102,1436183318142,0.623091,9.654019,1.2419921
103,1436183318164,0.6512229,9.636064,1.2443863
104,1436183318179,0.6757634,9.621698,1.2270284
105,1436183318199,0.65242,9.610326,1.2132617
106,1436183318222,0.6745663,9.67856,1.2599486
107,1436183318239,0.7134721,9.725247,1.2797008
108,1436183318259,0.7015011,9.880871,1.353921
109,1436183318279,0.65900403,9.843162,1.4197617
110,1436183318299,0.5931635,9.609727,1.271321
111,1436183318319,0.6997054,9.443929,1.1623849
112,1436183318339,0.760159,9.431957,1.1438298
113,1436183318361,0.81343,9.427768,1.1725603
114,1436183318380,0.86610246,9.4217825,1.1851299
115,1436183318402,0.87927055,9.488221,1.2030864
116,1436183318421,0.90381116,9.630077,1.1569979
117,1436183318440,0.9403227,9.660604,1.283292
118,1436183318469,0.94211835,9.656414,1.2114661
119,1436183318480,0.8607155,9.609129,1.2509704
120,1436183318511,0.87567925,9.527127,1.0390835
121,1436183318520,0.86011696,9.572617,1.1186907
122,1436183318544,0.83856916,9.639056,1.1270704
123,1436183318562,0.87687635,9.697116,1.122282
124,1436183318581,0.9163807,9.651027,1.0839748
125,1436183318600,0.9451111,9.554062,1.062427
126,1436183318620,0.98581254,9.490616,1.1258733
127,1436183318640,0.97862995,9.530719,1.1408371
128,1436183318661,0.96306765,9.673772,1.1683705
129,1436183318680,0.99179804,9.745,1.13964
130,1436183318699,1.06123,9.650429,1.0456676
131,1436183318721,1.0821792,9.560646,1.0827777
132,1436183318742,1.0175357,9.536704,1.1402385
133,1436183318772,0.9660604,9.5971575,1.122282
134,1436183318844,0.98940384,9.612122,1.0737995
135,1436183318845,1.0199299,9.598953,1.0283096
136,1436183318846,1.0283096,9.611523,1.0139444
137,1436183318847,1.0235212,9.634866,1.0265139
138,1436183318862,1.0319009,9.6923275,1.0217255
139,1436183318887,0.9935937,9.701305,0.9804256
140,1436183318900,0.9684546,9.657013,0.95468795
141,1436183318922,0.9876082,9.643246,1.0079589
142,1436183318942,0.985214,9.626487,0.9708488
143,1436183318960,0.9911995,9.642049,0.92655605
144,1436183318980,0.96905315,9.650429,0.93254155
145,1436183319000,0.931943,9.603143,0.98820674
146,1436183319069,0.94810385,9.623494,0.94930094
147,1436183319070,0.9391256,9.657013,1.0426749
148,1436183319071,0.9935937,9.702502,0.7727286
149,1436183319080,0.94810385,9.706693,0.9504981
150,1436183319102,0.95349085,9.677961,1.021127
151,1436183319121,0.9307459,9.584588,1.0516531
152,1436183319140,0.9056068,9.584588,0.9044097
153,1436183319161,0.9032126,9.673772,0.9552865
154,1436183319182,0.93254155,9.693524,0.99060094
155,1436183319202,0.99060094,9.654618,0.89184016
156,1436183319221,1.0133458,9.569624,0.8379706
157,1436183319242,0.96306765,9.503185,0.90859956
158,1436183319262,0.9343372,9.482835,1.0426749
159,1436183319280,0.9211691,9.576807,1.0378864
160,1436183319301,0.9115923,9.704897,0.89543146
161,1436183319320,0.96306765,9.803059,0.8936358
162,1436183319345,0.96546185,9.722853,0.8702923
163,1436183319366,0.92655605,9.541492,1.0223241
164,1436183319386,0.87328506,9.650429,0.97862995
165,1436183319401,0.8714894,9.718064,0.9540894
166,1436183319423,0.9068039,9.713875,0.88286185
167,1436183319448,0.9259575,9.626487,0.8182184
168,1436183319464,0.93493575,9.607931,0.81642276
169,1436183319547,0.9415198,9.616311,0.85652566
170,1436183319548,0.9576807,9.668385,0.89902276
171,1436183319549,0.94451255,9.720459,0.8463503
172,1436183319550,0.97264445,9.657013,0.878672
173,1436183319570,0.98940384,9.624691,0.81343
174,1436183319580,0.9516952,9.618107,0.8726865
175,1436183319602,0.9271546,9.647436,0.89543146
176,1436183319621,0.91578215,9.665991,0.94092125
177,1436183319640,0.931943,9.667188,0.8535329
178,1436183319661,0.95708215,9.6288805,0.7799112
179,1436183319680,0.91458505,9.614515,0.9935937
180,1436183319702,0.90979666,9.592369,0.90141696
181,1436183319721,0.84694886,9.630676,0.93134445
182,1436183319744,0.88405895,9.640852,0.91817635
183,1436183319762,0.9068039,9.639654,0.9935937
184,1436183319781,0.93613285,9.602545,0.9475053
185,1436183319800,0.9403227,9.534309,0.85772276
186,1436183319822,0.8996213,9.521142,0.8690952
187,1436183319843,0.91338795,9.636662,0.88405895
188,1436183319863,0.9115923,9.704298,0.9475053
189,1436183319883,0.8984242,9.685144,0.94930094
190,1436183319903,0.9068039,9.696517,0.86969376
191,1436183319924,0.8924387,9.689334,0.94451255
192,1436183319943,0.94690675,9.640852,0.8702923
193,1436183319962,0.87089086,9.605537,0.97503865
194,1436183319981,0.85054016,9.611523,0.96187055
195,1436183320000,0.8631097,9.612122,0.9648633
196,1436183320022,0.88944596,9.597756,0.94930094
197,1436183320042,0.88405895,9.610326,0.92057055
198,1436183320063,0.8702923,9.660006,0.92775315
199,1436183320083,0.878672,9.688736,0.9259575
200,1436183320104,0.8655039,9.646837,0.9331401
201,1436183320124,0.8319851,9.611523,0.9756372
202,1436183320144,0.82779527,9.577405,0.86969376
203,1436183320163,0.8511387,9.606135,0.8265981
204,1436183320182,0.89184016,9.636064,0.8379706
205,1436183320210,0.87567925,9.7007065,0.94690675
206,1436183320281,0.96905315,9.750386,0.7858967
207,1436183320282,0.9516952,9.690532,0.86849666
208,1436183320283,0.94092125,9.668983,1.0127473
209,1436183320284,0.92535895,9.592968,0.8762778
210,1436183320303,0.9247604,9.516354,0.87328506
211,1436183320326,0.87567925,9.540296,0.96067345
212,1436183320343,0.88046765,9.625888,0.96785605
213,1436183320361,0.88405895,9.733028,0.91697925
214,1436183320383,0.8738836,9.812635,0.8912416
215,1436183320408,0.82779527,9.7803135,0.8571242
216,1436183320422,0.8206126,9.691729,0.89662856
217,1436183320448,0.81343,9.622296,0.92416185
218,1436183320464,0.8535329,9.6049385,0.88405895
219,1436183320481,0.84694886,9.57561,1.0360907
220,1436183320503,0.8343793,9.61691,0.93493575
221,1436183320528,0.81402856,9.694122,1.0720038
222,1436183320559,0.75836337,9.735423,1.0241197
223,1436183320561,0.79487497,9.731832,1.0342951
224,1436183320592,0.8122329,9.650429,0.9888053
225,1436183320601,0.801459,9.56723,0.9864111
226,1436183320621,0.78888947,9.519944,0.96785605
227,1436183320736,0.770933,9.549872,0.9247604
228,1436183320737,0.7990648,9.688137,0.9020155
229,1436183320738,0.80684596,9.73662,0.8655039
230,1436183320739,0.83138657,9.761759,0.931943
231,1436183320740,0.86370826,9.762358,0.973243
232,1436183320748,0.8834604,9.740809,0.99778354
233,1436183320761,0.8607155,9.679159,0.99778354
234,1436183320781,0.8738836,9.674371,0.7332243
235,1436183320801,0.87567925,9.580399,0.9175778
236,1436183320821,0.84814596,9.595362,1.2126632
237,1436183320842,0.88944596,9.619903,0.9223662
238,1436183320863,0.93732995,9.5971575,0.83258367
239,1436183320885,0.92416185,9.583391,1.0223241
240,1436183320905,0.8559271,9.654618,1.115698
241,1436183320927,0.8822633,9.70789,1.1324574
242,1436183320954,0.908001,9.718064,1.0839748
243,1436183320966,0.86251116,9.636064,1.0055647
244,1436183320982,0.83856916,9.56304,1.0522517
245,1436183321002,0.80804306,9.591172,1.0755951
246,1436183321023,0.79726917,9.68694,1.002572
247,1436183321045,0.760159,9.755774,1.1204864
248,1436183321062,0.7978677,9.725846,1.0630256
249,1436183321082,0.86370826,9.615114,1.1300632
250,1436183321103,0.8158242,9.559449,1.204882
251,1436183321125,0.76434886,9.569026,1.2294226
252,1436183321145,0.7739257,9.543886,1.2120646
253,1436183321162,0.8110358,9.5492735,1.1971009
254,1436183321184,0.80325466,9.56723,1.1611878
255,1436183321202,0.84335756,9.622296,1.0911574
256,1436183321222,0.8523358,9.616311,1.1061212
257,1436183321243,0.87927055,9.591172,1.1378443
258,1436183321265,0.9020155,9.5732155,1.1725603
259,1436183321285,0.89543146,9.591172,1.2006922
260,1436183321302,0.86251116,9.607333,1.210269
261,1436183321323,0.8367735,9.610326,1.1988965
262,1436183321342,0.8206126,9.57561,1.1629834
263,1436183321362,0.86610246,9.599552,0.89543146
264,1436183321383,0.88944596,9.496002,0.93732995
265,1436183321405,0.85532856,9.553463,1.2922704
266,1436183321422,0.8619126,9.606135,0.90381116
267,1436183321446,0.8355764,9.546879,0.92655605
268,1436183321465,0.801459,9.444528,1.091756
269,1436183321484,0.7326257,9.512163,1.1133038
270,1436183321503,0.7565677,9.600749,1.0336965
271,1436183321522,0.7739257,9.610326,0.91099375
272,1436183321543,0.7667431,9.613917,0.8206126
273,1436183321570,0.7589619,9.582792,0.8098387
274,1436183321623,0.74758947,9.588778,0.85293436
275,1436183321624,0.7505822,9.632472,0.87687635
276,1436183321625,0.717662,9.646837,0.8583213
277,1436183321647,0.6841431,9.655217,0.81402856
278,1436183321663,0.7398083,9.621698,0.7793127
279,1436183321688,0.6967127,9.622895,0.75596917
280,1436183321705,0.682946,9.629479,0.6811504
281,1436183321725,0.6973112,9.552865,0.6063316
282,1436183321745,0.7128736,9.57561,0.51235914
283,1436183321764,0.7380127,9.609129,0.40761283
284,1436183321783,0.7739257,9.638457,0.33039984
285,1436183321803,0.748188,9.660006,0.23702596
286,1436183321824,0.7344214,9.66659,0.27832595
287,1436183321845,0.7098808,9.711481,0.30885202
288,1436183321864,0.6721721,9.730635,0.22026655
289,1436183321886,0.66738373,9.718663,0.09756372
290,1436183321907,0.7110779,9.709086,0.05566519
291,1436183321925,0.80564886,9.726444,0.05626374
292,1436183321946,0.89423436,9.706094,0.09935937
293,1436183321965,0.91338795,9.70789,0.04309563
294,1436183321984,0.9498995,9.782708,-0.142455
295,1436183322003,1.0289081,9.7084875,-0.19512744
296,1436183322023,1.0241197,9.703101,0.2184709
297,1436183322043,1.09834,9.633071,-0.061052144
298,1436183322064,1.1414356,9.639056,-0.2741361
299,1436183322082,1.2443863,9.5798,-0.090381116
300,1436183322103,1.3072342,9.622296,0.04309563
301,1436183322123,1.5059528,9.855731,-0.1400608
302,1436183322143,1.5239093,9.837176,-0.09756372
303,1436183322169,1.4407109,9.8042555,0.01316811
304,1436183322190,1.3293805,9.738416,0.02932897
305,1436183322206,1.1569979,9.683948,0.051475335
306,1436183322223,1.0384849,9.69951,0.06344634
307,1436183322245,0.9091981,9.734225,0.39324763
308,1436183322264,0.82719666,9.7240505,0.39444473
309,1436183322283,0.8678981,9.651626,0.29508537
310,1436183322304,0.90141696,9.446322,0.24660277
311,1436183322376,0.9187749,9.215282,0.33638534
312,1436183322379,1.0109516,9.226056,0.35793316
313,1436183322381,1.1552023,9.321824,0.15203181
314,1436183322383,1.3102269,9.275736,0.11252748
315,1436183322404,1.4107834,9.172785,0.02932897
316,1436183322425,1.5424645,9.040505,-0.02932897
317,1436183322443,1.6226702,8.953716,-0.0796072
318,1436183322463,1.6837224,8.93576,-0.011372458
319,1436183322485,1.6472107,9.043498,0.073621705
320,1436183322503,1.6041151,9.239224,0.092775315
321,1436183322523,1.6071079,9.409213,0.0047884034
322,1436183322544,1.6065093,9.552865,-0.1340753
323,1436183322565,1.5981296,9.674969,-0.18016368
324,1436183322584,1.5209166,9.896433,0.010773907
325,1436183322606,1.4748282,10.093356,-0.07182605
326,1436183322627,1.46585,10.300454,-0.15263036
327,1436183322646,1.4772224,10.257359,-0.11911154
328,1436183322665,1.3617022,10.45069,0.23403321
329,1436183322684,1.460463,10.701483,0.016759412
330,1436183322703,1.4969746,10.915166,-0.009576807
331,1436183322723,1.3856442,11.089344,0.3866636
332,1436183322743,1.3581109,11.224616,0.39444473
333,1436183322763,1.5520413,11.266515,0.1328782
334,1436183322785,1.7399861,11.051037,0.05925649
335,1436183322805,1.2665327,11.602302,0.19033903
336,1436183322824,1.2114661,12.497134,-0.7445967
337,1436183322843,1.9129672,12.173917,-1.4293385
338,1436183322863,1.7405846,10.718841,-2.1529858
339,1436183322885,1.1180922,9.31943,-2.7485435
340,1436183322904,0.15502456,8.628104,-3.020884
341,1436183322944,-0.3657143,8.480861,-2.3026235
342,1436183322945,-0.3357868,9.107543,-1.2916719
343,1436183322963,0.18255788,10.280104,-0.6823475
344,1436183322984,0.9211691,10.751163,-0.29328972
345,1436183323003,1.1599907,10.160992,-0.4249708
346,1436183323024,1.328782,9.059061,-0.09935937
347,1436183323088,1.0079589,6.6852098,-0.14963761
348,1436183323089,0.7248446,5.194819,-0.30226797
349,1436183323090,0.63087213,4.135385,-0.20231004
350,1436183323114,0.61650693,3.7056258,0.065242
351,1436183323124,0.55365914,4.0372224,0.3196259
352,1436183323144,0.39444473,5.1463366,0.5255273
353,1436183323166,0.219668,6.758233,0.58119243
354,1436183323183,0.142455,8.611943,0.30765492
355,1436183323203,0.17298107,10.353725,-0.035913024
356,1436183323226,0.107739076,11.829751,-0.5494693
357,1436183323244,-0.3752911,12.530055,-0.18076223
358,1436183323265,-1.1234791,12.538434,-0.45549688
359,1436183323285,-1.1528081,12.431892,-1.0007763
360,1436183323306,-0.97025025,12.460623,-1.0247183
361,1436183323326,-0.6847417,12.442068,-0.8774749
362,1436183323345,-0.16400282,12.049418,-0.7811083
363,1436183323364,0.50517654,11.124659,-0.5081693
364,1436183323384,1.1204864,9.7863,-0.17717093
365,1436183323404,2.622848,8.124723,-0.80564886
366,1436183323425,3.6697125,6.1566896,-2.2786815
367,1436183323445,3.169923,4.1677065,-5.659294
368,1436183323466,2.8167782,2.6641479,-5.6778493
369,1436183323486,2.2098482,6.1112,-2.124854
370,1436183323509,0.9487024,16.75163,-1.7046716
371,1436183323526,-0.1933318,19.105131,-8.973468
372,1436183323546,1.6053122,12.735357,-3.0986955
373,1436183323565,3.7110126,15.652692,-3.5392287
374,1436183323584,2.8113914,16.670826,-2.6497827
375,1436183323604,2.9789855,18.377295,-1.7232267
376,1436183323626,3.5212722,19.488203,-1.7711107
377,1436183323646,4.710592,19.565416,-2.6886885
378,1436183323667,4.7560816,19.159,-1.9925743
379,1436183323686,2.823961,16.891691,-0.98940384
380,1436183323706,1.5861586,14.43943,-0.85532856
381,1436183323726,-0.82001406,7.079654,-0.08619126
382,1436183323745,-0.94930094,3.9677908,-0.053869538
383,1436183323765,-1.1174936,1.7202339,-1.2677298
384,1436183323786,-1.4000094,-0.545878,-1.2042835
385,1436183323854,-0.85891986,-2.695871,-0.7068881
386,1436183323871,-0.29568392,-4.429273,-1.0283096
387,1436183323872,0.12090719,-5.085883,-0.81283146
388,1436183323873,0.3250129,-4.337695,-0.45968673
389,1436183323885,0.10474633,-2.8431146,-0.0724246
390,1436183323905,-0.4309563,-1.0510546,-0.09876082
391,1436183323926,-1.2132617,0.75596917,1.1079168
392,1436183323944,-3.4284968,5.953781,3.2208
393,1436183323978,-5.005079,19.13506,-0.23523031
394,1436183323984,4.4657845,19.608511,-10.945692
395,1436183324005,4.8428717,19.517532,-1.1013328
396,1436183324031,-2.0871453,19.608511,-0.93972415
397,1436183324044,-4.0467997,19.608511,-0.74399817
398,1436183324065,-1.8177977,19.608511,0.047884032
399,1436183324086,0.05746084,19.608511,0.76554596
400,1436183324106,1.5215151,17.310677,-0.11432313
401,1436183324124,2.0817583,12.840702,-1.2497733
402,1436183324145,2.8018146,10.056845,-1.1115081
403,1436183324165,1.1575965,6.5218053,-0.47524905
404,1436183324185,0.5955577,3.2004492,0.47524905
405,1436183324206,1.0187328,0.60453594,-0.020949265
406,1436183324226,1.5352819,-2.146402,-0.6027403
407,1436183324246,1.3569138,-5.79337,-0.6266823
408,1436183324266,1.6603789,-6.8773446,-0.20829555
409,1436183324286,1.4969746,-5.644929,-0.25498247
410,1436183324305,1.3227965,-2.9999347,0.022146367
411,1436183324325,1.3904326,0.3866636,1.3383588
412,1436183324345,2.9029696,3.0597897,2.1637597
413,1436183324365,2.5629928,8.628703,5.115212
414,1436183324384,-3.1723173,19.608511,-3.1376014
415,1436183324405,3.3243492,16.621147,2.3798366
416,1436183324425,7.0407486,19.608511,-1.8357542
417,1436183324445,4.583101,19.608511,1.3461399
418,1436183324464,3.9875429,19.608511,1.8381484
419,1436183324485,3.5434184,19.608511,-0.10414778
