id,attr_time,attr_x,attr_y,attr_z
1,1436898151014,-9.255385,2.8772318,-2.44448
2,1436898151032,-9.105747,2.8892028,-2.456451
3,1436898151053,-9.052477,2.891597,-2.4331074
4,1436898151073,-8.893861,2.843713,-2.3463178
5,1436898151091,-9.103952,2.80361,-2.3546975
6,1436898151110,-9.053075,2.7736826,-2.2631192
7,1436898151130,-9.054273,2.7527335,-2.2254105
8,1436898151149,-9.077017,2.778471,-2.259528
9,1436898151170,-9.098565,2.783858,-2.2774844
10,1436898151192,-9.053674,2.7850552,-2.2882583
11,1436898151211,-9.147048,2.7629087,-2.3133974
12,1436898151231,-9.176975,2.7611132,-2.236783
13,1436898151251,-9.015965,2.7371712,-2.2146366
14,1436898151274,-8.996213,2.8951883,-2.2888567
15,1436898151291,-8.926183,3.044826,-2.3930047
16,1436898151312,-8.909423,3.2393548,-2.6479871
17,1436898151332,-9.268554,3.2920272,-2.6264393
18,1436898151350,-8.980052,3.2465374,-2.5887306
19,1436898151374,-8.91062,3.4075475,-2.6850972
20,1436898151395,-8.929175,3.4925418,-2.6156654
21,1436898151414,-8.857947,3.3572693,-2.4229321
22,1436898151434,-8.762778,3.193865,-2.2720973
23,1436898151454,-8.881889,3.1501708,-2.3289597
24,1436898151474,-9.131485,3.1711202,-2.244564
25,1436898151492,-9.021352,3.163339,-2.2541409
26,1436898151512,-8.986636,3.084929,-2.112883
27,1436898151531,-8.938752,2.9777884,-2.071583
28,1436898151606,-9.033921,3.0095115,-2.0859482
29,1436898151607,-9.057265,3.0190883,-2.059612
30,1436898151608,-9.059061,2.9550436,-2.0213048
31,1436898151611,-9.069236,2.883816,-1.9093759
32,1436898151633,-8.975264,2.9233203,-1.9674352
33,1436898151651,-9.018359,3.0268695,-2.0242975
34,1436898151671,-9.0315275,3.0388405,-2.046444
35,1436898151696,-9.089587,3.0029275,-1.9871874
36,1436898151715,-9.012972,3.0334535,-2.023699
37,1436898151732,-9.0237465,3.1028855,-2.0847511
38,1436898151752,-9.002198,3.071761,-2.0667946
39,1436898151772,-9.059659,2.9520507,-2.0602105
40,1436898151793,-9.170391,2.949058,-2.2577322
41,1436898151811,-9.370307,2.938284,-2.0751743
42,1436898151831,-9.011177,2.9508536,-2.1894975
43,1436898151851,-9.113529,3.0226796,-2.148796
44,1436898151876,-9.033921,3.0107086,-2.0979192
45,1436898151897,-9.0429,3.007716,-2.1140802
46,1436898151912,-9.01417,3.0454245,-2.0901382
47,1436898151934,-9.001001,3.1944637,-2.2541409
48,1436898151952,-9.059061,3.1663318,-2.1918917
49,1436898151971,-9.049484,3.0873232,-2.0817583
50,1436898151991,-8.934562,3.020884,-2.0685902
51,1436898152012,-8.980052,3.1932666,-2.156577
52,1436898152035,-9.102755,3.127426,-2.142212
53,1436898152075,-9.018359,3.0765493,-2.0883424
54,1436898152076,-8.959702,3.1250317,-2.0644004
55,1436898152098,-8.954913,3.1759086,-2.1428106
56,1436898152113,-9.093777,3.1483753,-2.110489
57,1436898152132,-9.020155,3.177704,-2.1996727
58,1436898152151,-8.897452,3.1364043,-2.0691888
59,1436898152171,-8.835801,3.2202013,-2.098518
60,1436898152194,-8.959702,3.2638955,-2.2188265
61,1436898152212,-9.227253,3.2130187,-2.2230163
62,1436898152232,-9.08001,3.13401,-2.15957
63,1436898152253,-8.971074,3.0992942,-2.088941
64,1436898152271,-9.004593,3.122039,-2.0644004
65,1436898152292,-8.939949,3.1364043,-2.0799627
66,1436898152320,-9.059659,3.1453824,-2.099715
67,1436898152334,-9.006389,3.1064768,-2.1254525
68,1436898152355,-9.027936,3.1352072,-2.1942859
69,1436898152374,-9.051279,3.165733,-2.1948843
70,1436898152394,-8.973468,3.1585505,-2.171541
71,1436898152420,-9.030331,3.1711202,-2.1984756
72,1436898152434,-8.991425,3.180697,-2.1990743
73,1436898152453,-8.962694,3.2142158,-2.1817162
74,1436898152473,-8.9842415,3.229778,-2.2655134
75,1436898152494,-9.041702,3.2231941,-2.1440077
76,1436898152514,-8.977658,3.229778,-2.1523874
77,1436898152539,-8.932767,3.2495303,-2.1290438
78,1436898152603,-8.969278,3.2291796,-2.1158757
79,1436898152604,-8.963293,3.196858,-2.0380642
80,1436898152605,-8.92319,3.293823,-2.134431
81,1436898152626,-8.9998045,3.3812113,-2.180519
82,1436898152639,-8.987235,3.3159695,-2.1266496
83,1436898152679,-8.902839,3.2477345,-1.9829975
84,1436898152680,-8.967483,3.2399535,-2.1122844
85,1436898152694,-8.842984,3.1675289,-2.0398598
86,1436898152717,-9.245809,3.281852,-2.2140381
87,1436898152733,-9.18715,3.25372,-2.070386
88,1436898152753,-8.897452,3.1950622,-2.011728
89,1436898152775,-8.930372,3.229778,-1.9560628
90,1436898152794,-8.91062,3.1561563,-1.9853917
91,1436898152813,-9.062652,3.217807,-2.006341
92,1436898152834,-8.812458,3.1723173,-2.054225
93,1436898152854,-8.892065,3.2118216,-2.1571758
94,1436898152875,-9.0016,3.2423477,-2.2523453
95,1436898152895,-9.008782,3.280655,-2.2876596
96,1436898152915,-8.824429,3.2716765,-2.1990743
97,1436898152932,-8.859743,3.1783028,-2.130241
98,1436898152954,-9.097966,3.1591492,-1.9841946
99,1436898152974,-9.027337,3.2202013,-2.0111294
100,1436898152993,-9.017162,3.3381157,-2.0009542
101,1436898153012,-8.612542,3.3728316,-1.9829975
102,1436898153081,-8.648455,3.4290953,-1.9871874
103,1436898153083,-8.971074,3.4452562,-2.134431
104,1436898153084,-9.4457245,3.4033577,-2.0069396
105,1436898153104,-9.289502,3.3877954,-2.132635
106,1436898153122,-8.966884,3.4572272,-2.1577742
107,1436898153134,-8.875306,3.4584243,-2.19249
108,1436898153154,-9.095572,3.4512417,-2.1523874
109,1436898153172,-8.911219,3.3919852,-2.043451
110,1436898153197,-8.801684,3.2974143,-1.951873
111,1436898153215,-8.870518,3.198055,-1.8004397
112,1436898153242,-8.702325,3.0364463,-1.6831238
113,1436898153253,-8.852561,3.027468,-1.8142064
114,1436898153275,-9.202713,3.108871,-1.8471266
115,1436898153294,-9.171588,3.0711622,-1.875857
116,1436898153312,-9.248801,3.1190462,-1.7962499
117,1436898153333,-9.275137,3.2094274,-1.7591397
118,1436898153353,-9.418191,3.259107,-1.6364368
119,1436898153378,-9.100959,3.3848026,-1.6047137
120,1436898153399,-8.856153,3.4883518,-1.6196774
121,1436898153414,-8.706514,3.5511997,-1.6214731
122,1436898153436,-8.718486,3.596091,-1.6358383
123,1436898153454,-8.748413,3.5811272,-1.6537948
124,1436898153474,-8.735245,3.5847185,-1.6160861
125,1436898153494,-8.435969,3.5529952,-1.6903064
126,1436898153515,-8.516175,3.620033,-1.8249803
127,1436898153538,-8.684967,3.767875,-2.0141222
128,1436898153588,-8.760384,3.816956,-2.184709
129,1436898153590,-8.936956,3.8205473,-2.4331074
130,1436898153600,-9.329007,3.7337575,-2.4115596
131,1436898153630,-8.90643,3.6314054,-2.566584
132,1436898153633,-9.003994,3.550601,-2.5923219
133,1436898153663,-8.968081,3.425504,-2.4103625
134,1436898153676,-8.80767,3.318962,-2.5246856
135,1436898153693,-9.632472,3.342904,-2.1428106
136,1436898153718,-8.971672,3.2375593,-2.0326772
137,1436898153735,-8.909423,3.3123782,-1.7651252
138,1436898153755,-8.7125,3.328539,-1.7351977
139,1436898153776,-8.723274,3.489549,-1.7202339
140,1436898153794,-8.890868,3.7714663,-1.8261774
141,1436898153813,-8.661025,3.9486372,-1.8818425
142,1436898153840,-8.4587145,4.1892543,-2.1092918
143,1436898153853,-8.515577,4.2838254,-2.1751323
144,1436898153873,-8.529344,4.35625,-2.2930467
145,1436898153897,-8.616732,4.3406878,-2.2092497
146,1436898153918,-8.51019,4.3502645,-2.2517467
147,1436898153933,-8.6257105,4.401141,-2.2134395
148,1436898153953,-8.387487,4.2898107,-2.2415714
149,1436898153973,-8.303091,4.247314,-2.3050177
150,1436898153994,-8.5862055,4.295198,-2.3930047
151,1436898154015,-8.497022,4.272453,-2.4372973
152,1436898154033,-8.755595,4.2700586,-2.5330653
153,1436898154054,-8.9279785,4.300585,-2.4426842
154,1436898154084,-9.113529,4.3873744,-2.3678656
155,1436898154093,-8.986636,4.359243,-2.2421699
156,1436898154113,-9.0794115,4.3760023,-1.9716251
157,1436898154133,-8.66282,4.2981906,-1.7154455
158,1436898154154,-8.389283,4.36044,-1.5735891
159,1436898154185,-8.285135,4.466982,-1.4580688
160,1436898154193,-7.9236107,4.5418005,-1.4772224
161,1436898154214,-7.9409685,4.5920787,-1.3227965
162,1436898154233,-7.9595237,4.583101,-1.4652514
163,1436898154253,-8.364742,4.6806645,-1.6011224
164,1436898154272,-8.3408,4.6962266,-1.650802
165,1436898154292,-8.321647,4.727351,-1.6944963
166,1436898154312,-8.080431,4.620809,-1.7489643
167,1436898154333,-8.052299,4.5807066,-1.9416976
168,1436898154357,-8.540117,4.631583,-2.1763294
169,1436898154373,-8.596381,4.6405616,-2.3517046
170,1436898154393,-8.412027,4.7135844,-2.486977
171,1436898154417,-8.4234,4.7884035,-2.429516
172,1436898154434,-8.395866,4.753089,-2.3139958
173,1436898154453,-8.400655,4.7363296,-2.2272062
174,1436898154473,-8.488642,4.753089,-2.1829133
175,1436898155657,-8.26658,4.629189,-1.9895816
176,1436898155658,-8.128913,4.505289,-1.9147629
177,1436898155659,-8.251018,4.3622355,-1.8590976
178,1436898155660,-8.384495,4.313753,-1.9512744
179,1436898155661,-8.469488,4.2359414,-2.011728
180,1436898155662,-8.437167,4.2521024,-2.0913353
181,1436898155663,-8.930971,4.390966,-2.0895395
182,1436898155664,-8.782531,4.3502645,-1.958457
183,1436898155665,-8.537724,4.3676224,-1.8866309
184,1436898155666,-8.536526,4.4125137,-1.7477672
185,1436898155667,-8.252813,4.4657845,-1.7328035
186,1436898155668,-8.358757,4.572925,-1.8321629
187,1436898155669,-8.524555,4.6405616,-1.9249382
188,1436898155670,-8.425196,4.6698904,-2.0069396
189,1436898155671,-8.349778,4.6800656,-2.0913353
190,1436898155672,-8.323442,4.6740804,-2.1416135
191,1436898155673,-8.213907,4.5980644,-2.171541
192,1436898155674,-8.420407,4.5459905,-2.2337902
193,1436898155675,-8.541314,4.484938,-2.219425
194,1436898155676,-8.350377,4.3939586,-2.130241
195,1436898155677,-8.350976,4.3837833,-2.1386206
196,1436898155678,-8.462905,4.35625,-2.098518
197,1436898155679,-8.532336,4.36044,-2.1033063
198,1436898155680,-8.640076,4.410718,-2.0685902
199,1436898155681,-8.5862055,4.4035354,-2.0009542
200,1436898155682,-8.3821,4.3658266,-1.8501194
201,1436898155683,-8.516175,4.4580035,-1.9818004
202,1436898155684,-8.594585,4.5232453,-1.9991584
203,1436898155685,-8.354567,4.5513773,-1.9081788
204,1436898155686,-8.328829,4.554969,-2.0278888
205,1436898155687,-8.315661,4.549582,-2.0081367
206,1436898155688,-8.327033,4.51307,-2.0811598
207,1436898155689,-8.39048,4.4885297,-2.1452048
208,1436898155690,-8.345589,4.4179006,-2.1140802
209,1436898155691,-8.44016,4.337695,-2.1817162
210,1436898155692,-8.576629,4.277241,-2.1535845
211,1436898155693,-8.684967,4.1958385,-2.1470003
212,1436898155694,-8.706514,4.1665096,-2.0733786
213,1436898155695,-8.674791,4.132392,-1.9985598
214,1436898155696,-8.5700445,4.1515455,-1.9985598
215,1436898155697,-8.652645,4.2000284,-2.0177135
216,1436898155698,-8.708909,4.1491513,-1.9446903
217,1436898155699,-8.55987,4.19524,-1.9111716
218,1436898155700,-8.476671,4.210802,-1.951873
219,1436898155701,-8.508993,4.257489,-1.9985598
220,1436898155702,-8.634089,4.2556934,-1.8854338
221,1436898155703,-8.573038,4.243124,-2.083554
222,1436898155704,-8.599374,4.185065,-2.0123265
223,1436898155705,-8.673594,4.0940847,-1.7878702
224,1436898155706,-8.611345,4.0037036,-1.7741034
225,1436898155707,-8.604162,4.0318356,-1.9608512
226,1436898155708,-8.504803,4.023456,-1.934515
227,1436898155709,-8.773552,4.1491513,-2.1470003
228,1436898155710,-8.914211,4.1305966,-2.1110873
229,1436898155711,-8.592192,4.111443,-2.1134815
230,1436898155712,-8.624513,4.1515455,-2.0147207
231,1436898155713,-8.419808,4.0803185,-2.022502
232,1436898155714,-8.556877,4.1258082,-1.9997569
233,1436898155715,-8.635885,4.132392,-2.0638018
234,1436898155716,-8.579621,4.12102,-2.130241
235,1436898155717,-8.7125,4.173692,-2.1703439
236,1436898155718,-8.520366,4.1521444,-2.1529858
237,1436898155733,-8.591593,4.132392,-2.1499932
238,1436898155753,-8.666411,4.1581297,-2.1894975
239,1436898155773,-8.684368,4.150947,-2.144606
240,1436898155793,-8.673594,4.107253,-2.022502
241,1436898155813,-8.614338,4.0456023,-1.9985598
242,1436898155833,-8.519767,4.048595,-1.8866309
243,1436898155853,-8.587403,4.119224,-2.018312
244,1436898155874,-8.675988,4.162918,-2.070386
245,1436898155895,-8.765172,4.19105,-2.0111294
246,1436898155916,-8.532935,4.10845,-1.9369092
247,1436898155955,-8.544906,4.1252093,-1.9626468
248,1436898155956,-8.683171,4.1539397,-1.9853917
249,1436898155975,-8.731653,4.2131963,-2.0769699
250,1436898155994,-8.705916,4.187459,-1.9764135
251,1436898156014,-8.577228,4.2658687,-1.9812019
252,1436898156039,-8.510789,4.2515035,-1.9327193
253,1436898156056,-8.439561,4.2371383,-1.9788077
254,1436898156079,-8.352173,4.207211,-2.059612
255,1436898156095,-8.643068,4.2598834,-2.136825
256,1436898156115,-8.702325,4.267066,-2.2691047
257,1436898156134,-8.642469,4.2491093,-2.1625626
258,1436898156154,-8.497022,4.2012253,-2.1787236
259,1436898156175,-8.600571,4.1299977,-2.0177135
260,1436898156195,-8.574833,4.0880995,-2.0679917
261,1436898156214,-8.66282,4.06296,-2.0350714
262,1436898156241,-8.558673,4.098873,-2.0201077
263,1436898156257,-8.59698,4.180875,-2.2870612
264,1436898156278,-8.644864,4.208408,-2.0213048
265,1436898156299,-8.581417,4.201824,-2.3948002
266,1436898156315,-8.616134,4.109049,-2.0560207
267,1436898156335,-8.574833,4.1012673,-2.1481974
268,1436898156355,-8.624513,4.1359835,-2.2918496
269,1436898156383,-8.580819,4.0982747,-2.1637597
270,1436898156419,-8.662222,4.0276456,-2.1523874
271,1436898156420,-8.702923,4.0096893,-2.0248961
272,1436898156438,-8.634089,3.9857473,-2.0769699
273,1436898156460,-8.398261,3.8510735,-2.1559787
274,1436898156475,-8.899248,4.0821137,-2.48578
275,1436898156498,-9.076419,3.9917328,-2.1158757
276,1436898156519,-8.570643,3.9995139,-2.408567
277,1436898156537,-8.5143795,3.9827545,-2.0159178
278,1436898156556,-8.437765,3.9396589,-2.011728
279,1436898156576,-8.494628,4.052785,-2.2703018
280,1436898156596,-8.822633,4.0456023,-2.2691047
281,1436898156618,-8.762778,4.1012673,-2.2499511
282,1436898156639,-8.435969,4.0462008,-2.1930888
283,1436898156659,-8.630499,4.10845,-2.2732944
284,1436898156677,-8.686164,4.1162314,-2.043451
285,1436898156698,-8.634089,4.111443,-2.2625206
286,1436898156719,-8.579023,4.1922474,-1.9231426
287,1436898156739,-8.567651,4.1677065,-2.0578163
288,1436898156759,-8.531737,4.138976,-2.086547
289,1436898156780,-8.471284,4.1539397,-2.1027076
290,1436898156801,-8.65025,4.11683,-2.2164323
291,1436898156820,-8.63828,4.0402155,-2.0500352
292,1436898156839,-8.582615,3.9743748,-2.1266496
293,1436898156861,-8.757391,3.9815574,-2.0697873
294,1436898156910,-8.528147,3.9833531,-1.9829975
295,1436898156911,-8.902241,4.039018,-2.223615
296,1436898156916,-8.765172,4.0539823,-2.1894975
297,1436898156936,-8.500014,4.074931,-2.1631613
298,1436898156956,-8.549096,4.083311,-2.1200657
299,1436898156979,-8.65863,4.1276035,-2.1308396
300,1436898156996,-8.652046,4.1078515,-2.1547816
301,1436898157019,-8.447941,3.9863458,-2.1158757
302,1436898157037,-8.773552,3.9725792,-2.0536265
303,1436898157064,-8.736442,3.9414546,-2.1266496
304,1436898157077,-8.67539,3.9827545,-2.0883424
305,1436898157099,-8.655039,3.9833531,-2.100912
306,1436898157122,-8.686164,3.970185,-2.2331917
307,1436898157139,-8.681973,3.952827,-2.160767
308,1436898157159,-8.637083,3.9312792,-2.043451
309,1436898157178,-8.717288,3.845088,-2.2756886
310,1436898157200,-8.751406,3.8001966,-2.047641
311,1436898157220,-8.86513,3.7403417,-2.0925324
312,1436898157240,-8.896853,3.7906199,-2.1440077
313,1436898157259,-8.787917,3.7600937,-2.0602105
314,1436898157277,-8.765172,3.7499185,-2.1906946
315,1436898157297,-8.794501,3.7062242,-2.2703018
316,1436898157319,-8.916606,3.6529531,-2.319383
317,1436898157339,-8.938153,3.527856,-2.2649148
318,1436898157358,-8.605958,3.5272577,-2.4762032
319,1436898157454,-9.090185,3.3812113,-2.1763294
320,1436898157455,-9.093178,3.2052376,-2.0901382
321,1436898157456,-9.133281,3.2489316,-2.3870192
322,1436898157457,-9.008782,3.2489316,-2.0458453
323,1436898157458,-8.715493,3.1501708,-2.2385786
324,1436898157552,-8.6334915,3.2040405,-2.2110453
325,1436898157558,-8.91481,3.2495303,-2.4073699
326,1436898157559,-9.003395,3.2842462,-2.4109612
327,1436898157560,-9.146449,3.232771,-2.4301147
328,1436898157561,-9.003395,3.1543608,-2.2882583
329,1436898157577,-8.96449,3.0621839,-2.1559787
330,1436898157597,-8.930971,3.0771477,-2.005144
331,1436898157616,-8.859145,3.29502,-1.9015948
332,1436898157638,-8.589797,3.6649241,-1.9369092
333,1436898157656,-8.426991,4.016872,-1.9363106
334,1436898157680,-8.239645,4.281431,-1.8728642
335,1436898157699,-7.9732904,4.5244427,-1.8243817
336,1436898157722,-7.8188643,4.667496,-1.6765398
337,1436898157740,-7.6572556,4.7518916,-1.4688427
338,1436898157761,-7.4812818,4.8704047,-1.2940661
339,1436898157780,-7.747637,4.9775453,-0.9415198
340,1436898157800,-7.6171527,5.1104236,-0.6769605
341,1436898157819,-7.504027,5.185242,-0.43754035
342,1436898157839,-7.451953,5.1636944,-0.27952304
343,1436898157867,-7.189189,5.21517,-0.061052144
344,1436898157930,-6.863578,5.379173,-0.1376666
345,1436898157931,-7.4112515,5.57849,-0.14305355
346,1436898157932,-7.6506715,5.686229,-0.077213004
347,1436898157951,-7.1107793,5.761048,-0.08798691
348,1436898157960,-6.712743,6.011242,0.05865794
349,1436898157981,-6.827066,6.205172,0.12569559
350,1436898158008,-7.314286,6.613982,0.28431144
351,1436898158022,-7.4842744,6.7546415,0.7194576
352,1436898158042,-6.5858502,6.918046,1.1097125
353,1436898158062,-7.0275807,7.419631,1.3946224
354,1436898158079,-7.6003933,8.030751,1.7806876
355,1436898158098,-7.0946183,8.58022,2.2301989
356,1436898158123,-5.4527946,9.129091,1.804031
357,1436898158137,-4.8285065,10.017939,0.9564836
358,1436898158157,-5.0146556,10.490194,0.4285621
359,1436898158177,-6.23091,10.371083,0.65242
360,1436898158202,-5.9244523,10.2974615,1.1174936
361,1436898158219,-4.9583917,9.873688,1.5993267
362,1436898158237,-5.0014873,9.314043,1.9057846
363,1436898158260,-5.2594624,8.903438,1.5831659
364,1436898158277,-5.7766104,8.727464,1.2084733
365,1436898158318,-5.823297,8.479664,0.9756372
366,1436898158319,-5.805341,8.585009,0.6302736
367,1436898158403,-5.7724204,8.7849245,0.6464345
368,1436898158404,-5.6377463,8.876503,0.51116204
369,1436898158420,-5.645528,8.991425,0.52373165
370,1436898158421,-5.728726,9.220071,0.5626374
371,1436898158422,-5.779603,9.248801,0.6979098
372,1436898158469,-5.4085016,9.166202,0.8379706
373,1436898158470,-5.342661,8.933964,0.9127894
374,1436898158505,-5.442619,8.593987,0.7942764
375,1436898158506,-5.8358665,8.19236,0.7469909
376,1436898158517,-6.215348,7.803302,0.30885202
377,1436898158544,-6.727707,7.1706343,0.2172738
378,1436898158557,-6.76781,6.697779,0.006584055
379,1436898158577,-6.4248405,6.8683662,-0.1592144
380,1436898158597,-6.2901664,7.017405,-0.40521863
381,1436898158618,-6.476914,6.9330096,-0.51714754
382,1436898158638,-6.081272,6.9360023,-0.86370826
383,1436898158658,-6.365584,6.746262,-1.2587515
384,1436898158677,-6.6415157,6.341642,-1.6932992
385,1436898158698,-7.44896,5.7383027,-1.8387469
386,1436898158718,-7.807492,5.4432178,-1.821389
387,1436898158738,-7.792528,5.29777,-1.7818847
388,1436898158758,-8.608951,5.16968,-1.2611457
389,1436898158778,-8.170214,5.201403,-1.0342951
390,1436898158798,-7.797915,5.024831,-0.78410107
391,1436898158818,-7.6267295,4.734534,-0.7954735
392,1436898158858,-7.804499,4.1054573,-0.75836337
393,1436898158859,-7.9278,3.6409822,-0.88525605
394,1436898158878,-8.53892,3.3542767,-0.90979666
395,1436898158898,-8.914211,3.2543187,-0.8810662
396,1436898158918,-8.66701,3.2237926,-0.89662856
397,1436898158961,-9.498397,3.165733,-1.3826514
398,1436898158962,-10.093954,3.127426,-1.3120226
399,1436898158979,-8.951322,3.2902317,-1.6220716
400,1436898159005,-9.530719,3.2399535,-1.1959038
401,1436898159019,-9.897031,3.2184057,-1.0073603
402,1436898159040,-9.387665,3.2393548,-0.5057751
403,1436898159058,-8.8567505,3.2483332,-0.2789245
404,1436898159077,-8.607155,3.0903158,-0.3417723
405,1436898159099,-8.471883,2.8904,-0.7200562
406,1436898159121,-9.131485,2.8449101,-0.9804256
407,1436898159142,-9.238626,3.0005333,-1.2156559
408,1436898159157,-10.061633,3.031658,-1.0145429
409,1436898159182,-9.9473095,2.7593174,-0.7302315
410,1436898159198,-9.162011,2.3983915,-0.48722005
411,1436898159219,-8.775947,2.1140802,-0.37110126
412,1436898159239,-9.022549,1.8752584,-0.18734628
413,1436898159258,-9.309854,1.9847932,-0.5255273
414,1436898159280,-8.635287,3.117849,-1.4826094
