id,attr_time,attr_x,attr_y,attr_z
1,1436372950616,-7.445967,6.287772,-0.48722005
2,1436372950637,-7.3657618,6.303933,-0.3854665
3,1436372950655,-7.518392,6.192004,-0.41180268
4,1436372950677,-7.736264,5.887342,-0.41120413
5,1436372950697,-7.811083,5.6299653,-0.28550854
6,1436372950715,-8.006809,5.310938,-0.077811554
7,1436372950737,-8.168418,5.2768207,-0.073023155
8,1436372950757,-8.343793,5.2863975,-0.21906945
9,1436372950775,-8.573038,5.276222,-0.20290859
10,1436372950797,-8.664616,5.2744265,-0.1945289
11,1436372950818,-8.734647,5.336077,-0.14305355
12,1436372950835,-8.735844,5.450999,-0.18195933
13,1436372950861,-8.672397,5.5407815,-0.23283611
14,1436372950875,-8.514978,5.461174,-0.06584055
15,1436372950900,-8.326435,5.493496,0.11731588
16,1436372950917,-8.180388,5.5701103,0.18016368
17,1436372950934,-8.0127945,5.7149596,0.19273324
18,1436372950954,-7.8170686,5.957372,0.18315643
19,1436372950974,-7.57286,6.1327477,0.13227965
20,1436372951001,-7.335834,6.283582,0.1933318
21,1436372951015,-7.053318,6.582259,0.142455
22,1436372951036,-6.785766,6.8252707,0.12868834
23,1436372951055,-6.4344172,7.1221514,0.11611878
24,1436372951080,-6.133346,7.3603745,0.18076223
25,1436372951149,-5.940613,7.475296,0.35793316
26,1436372951150,-5.8149176,7.621941,0.44951138
27,1436372951151,-5.793968,7.6321163,0.47405192
28,1436372951156,-5.7879825,7.6961613,0.5291186
29,1436372951178,-5.7520695,7.7201033,0.5267244
30,1436372951195,-5.7640405,7.7201033,0.5482722
31,1436372951214,-5.7790046,7.665635,0.56563014
32,1436372951236,-5.744887,7.716512,0.5554548
33,1436372951254,-5.725135,7.707534,0.6027403
34,1436372951277,-5.7706246,7.728483,0.64703304
35,1436372951296,-5.703587,7.788338,0.5638345
36,1436372951315,-5.6904187,7.837419,0.54767364
37,1436372951337,-5.6389437,7.8972745,0.51235914
38,1436372951358,-5.555745,7.973889,0.43275195
39,1436372951379,-5.480926,8.06008,0.39564183
40,1436372951397,-5.5324016,8.042124,0.45609543
41,1436372951417,-5.501277,7.9954367,0.38367084
42,1436372951435,-5.4623713,8.037933,0.44472298
43,1436372951457,-5.439626,8.086416,0.47225627
44,1436372951479,-5.41748,8.124723,0.4381389
45,1436372951497,-5.4138885,8.14268,0.5021838
46,1436372951518,-5.3384714,8.200739,0.47405192
47,1436372951536,-5.3163247,8.168418,0.480636
48,1436372951557,-5.3504424,8.117541,0.57161564
49,1436372951579,-5.3103395,8.133701,0.54408234
50,1436372951595,-5.3606176,8.058883,0.57161564
51,1436372951616,-5.4976854,7.9571295,0.6619968
52,1436372951635,-5.6000376,7.9032598,0.6667852
53,1436372951657,-5.6802435,7.8930845,0.66858083
54,1436372951681,-5.6886234,7.879916,0.7278373
55,1436372951697,-5.5922565,7.902063,0.75836337
56,1436372951718,-5.5138464,7.9188223,0.8355764
57,1436372951735,-5.433641,7.994838,0.8858546
58,1436372951755,-5.301361,8.075044,0.89064306
59,1436372951775,-5.222951,8.12592,0.9672575
60,1436372951796,-5.1104236,8.164826,1.0217255
61,1436372951817,-4.9984946,8.185776,1.0630256
62,1436372951946,-4.8704047,8.271967,1.0857705
63,1436372951947,-4.8416743,8.339603,1.0133458
64,1436372951948,-4.8267107,8.388085,0.9792285
65,1436372951949,-4.832696,8.429385,0.99658644
66,1436372951950,-4.8416743,8.397064,0.9648633
67,1436372951951,-4.781221,8.351574,0.9528923
68,1436372952030,-4.8045645,8.412027,0.96665895
69,1436372952031,-4.9601874,8.400655,0.9708488
70,1436372952032,-4.9135003,8.388085,0.99538934
71,1436372952033,-4.782418,8.339603,1.0720038
72,1436372952036,-4.7884035,8.376115,1.0702082
73,1436372952055,-4.8362875,8.337808,1.0181342
74,1436372952076,-4.845266,8.341399,1.0097545
75,1436372952097,-4.896741,8.340201,0.96785605
76,1436372952124,-4.9404354,8.322844,0.91937345
77,1436372952136,-5.0026846,8.2276745,0.9696517
78,1436372952155,-5.1529207,8.200141,0.9056068
79,1436372952176,-5.2522798,8.166622,0.86370826
80,1436372952198,-5.2169657,8.210316,0.9367314
81,1436372952219,-5.097854,8.24204,0.9020155
82,1436372952238,-5.035006,8.297705,0.9528923
83,1436372952259,-4.9027267,8.333019,0.9780314
84,1436372952276,-4.8297033,8.359954,1.0103531
85,1436372952301,-4.8003745,8.41502,1.0372878
86,1436372952318,-4.8165355,8.380903,1.0319009
87,1436372952338,-4.818331,8.401853,1.0223241
88,1436372952360,-4.8039656,8.365939,1.0642227
89,1436372952378,-4.8362875,8.401254,1.0468647
90,1436372952401,-4.9320555,8.39048,0.9720459
91,1436372952422,-4.863222,8.371326,0.94092125
92,1436372952453,-4.811148,8.318654,0.9540894
93,1436372952456,-4.811747,8.310873,0.90500826
94,1436372952476,-4.818331,8.354567,0.8295909
95,1436372952496,-4.8877625,8.370728,0.81163436
96,1436372952516,-4.8979383,8.404845,0.7529764
97,1436372952536,-4.9146976,8.391078,0.7846996
98,1436372952559,-4.8704047,8.37372,0.78649527
99,1436372952583,-4.722563,8.437167,0.78649527
100,1436372952599,-4.6363716,8.540716,0.7284359
101,1436372952619,-4.5920787,8.585009,0.6991069
102,1436372952673,-4.496909,8.66282,0.60453594
103,1436372952674,-4.4675803,8.734647,0.6147113
104,1436372952678,-4.4322658,8.791509,0.58897364
105,1436372952697,-4.334702,8.897452,0.65301853
106,1436372952719,-4.208408,8.968081,0.6781576
107,1436372952741,-4.0922894,9.1033535,0.6799533
108,1436372952756,-3.9372647,9.123704,0.6380547
109,1436372952776,-4.1718965,9.139266,0.83018947
110,1436372952799,-4.742315,8.698134,0.97025025
111,1436372952817,-5.3205147,7.848193,1.1450269
112,1436372952839,-5.9202623,6.9024835,1.7543513
113,1436372952858,-6.531981,6.0806737,2.3612814
114,1436372952881,-7.032369,5.6066217,2.5372553
115,1436372952899,-7.3298483,5.4593782,2.4905684
116,1436372952919,-7.5351515,5.4126916,2.4037786
117,1436372952939,-7.617751,5.583278,2.1428106
118,1436372952959,-7.603386,5.8801594,1.8375498
119,1436372952979,-7.752425,6.084265,1.6412252
120,1436372952999,-7.8888946,6.2368956,1.4520833
121,1436372953019,-7.867945,6.2889695,1.3311762
122,1436372953040,-7.7757688,6.294955,1.411382
123,1436372953060,-7.6883802,6.1836243,1.3856442
124,1436372953081,-7.6470804,6.0357823,1.4359225
125,1436372953097,-7.4872675,5.8562174,1.4269443
126,1436372953120,-7.36217,5.8813562,1.4676456
127,1436372953140,-7.306505,5.8921304,1.3509283
128,1436372953159,-7.2987237,5.9627595,1.2204443
129,1436372953179,-7.359776,6.169858,1.1234791
130,1436372953198,-7.548918,6.2608376,0.9475053
131,1436372953219,-7.6231384,6.3218894,0.919972
132,1436372953240,-7.5309615,6.3889275,1.0420763
133,1436372953260,-7.393295,6.3901243,1.1097125
134,1436372953280,-7.275979,6.257246,1.1935096
135,1436372953300,-7.347805,6.208165,1.3790601
136,1436372953318,-7.583634,6.159084,1.377863
137,1436372953341,-7.6387005,6.0621185,1.4036007
138,1436372953357,-7.477092,6.029797,1.4754268
139,1436372953419,-7.3549876,5.995081,1.5107412
140,1436372953430,-7.294534,6.011242,1.411382
141,1436372953431,-7.2502413,6.030994,1.3317747
142,1436372953438,-7.2472486,6.0866594,1.2318168
143,1436372953458,-7.32506,6.1519012,1.1599907
144,1436372953478,-7.445967,6.1758432,1.1025299
145,1436372953497,-7.4908586,6.1746464,1.1186907
146,1436372953523,-7.6243353,6.275801,1.1911154
147,1436372953539,-7.6608467,6.2219315,1.1587936
148,1436372953559,-7.495647,6.157887,1.3263878
149,1436372953577,-7.4567413,6.1195793,1.4694413
150,1436372953598,-7.4591355,6.053739,1.3730747
151,1436372953622,-7.3669586,6.009446,1.4520833
152,1436372953640,-7.3549876,6.06152,1.471237
153,1436372953660,-7.4735007,6.096236,1.3215994
154,1436372953680,-7.5321584,6.0860605,1.264737
155,1436372953700,-7.4202294,6.0208187,1.2557588
156,1436372953720,-7.385514,6.0172276,1.2258313
157,1436372953740,-7.45734,6.0411696,1.1408371
158,1436372953760,-7.589619,6.045958,1.1366472
159,1436372953780,-7.675811,6.022016,1.0893618
160,1436372953800,-7.615956,5.990891,1.1180922
161,1436372953818,-7.5549035,6.066907,1.1414356
162,1436372953840,-7.5842323,6.127361,1.0923545
163,1436372953860,-7.504027,6.196194,1.1204864
164,1436372953881,-7.385514,6.256049,1.1390414
165,1436372953900,-7.323863,6.2500634,1.1881226
166,1436372953921,-7.323863,6.221333,1.2509704
167,1436372953940,-7.223905,6.2195373,1.2336124
168,1436372953961,-7.2083426,6.2446766,1.2958617
169,1436372953981,-7.27957,6.241684,1.2575544
170,1436372954000,-7.386112,6.187814,1.2862848
171,1436372954018,-7.3226657,6.1327477,1.3437457
172,1436372954040,-7.32925,6.0621185,1.3623008
173,1436372954058,-7.240066,6.035184,1.3066356
174,1436372954086,-7.2143283,5.9723363,1.3030443
175,1436372954161,-7.267599,5.9585695,1.2910733
176,1436372954162,-7.3926964,5.9519854,1.2479776
177,1436372954163,-7.4776907,6.057929,1.2802993
178,1436372954164,-7.6548615,6.261436,1.270124
179,1436372954179,-7.876325,6.342839,1.283292
180,1436372954206,-7.8709383,6.3141084,1.3431472
181,1436372954218,-7.6572556,6.2345014,1.5065514
182,1436372954239,-7.515998,6.1501055,1.6065093
183,1436372954261,-7.3627687,6.022016,1.5831659
184,1436372954278,-7.227496,5.8723783,1.6304513
185,1436372954300,-7.2209125,5.8107276,1.5664065
186,1436372954321,-7.338228,5.8238955,1.3652935
187,1436372954338,-7.4669166,5.831078,1.168969
188,1436372954358,-7.5686703,5.8681884,1.01574
189,1436372954378,-7.6171527,5.9412117,0.8702923
190,1436372954398,-7.713519,5.9621606,0.7553706
191,1436372954422,-7.6213427,5.931036,0.6877344
192,1436372954441,-7.6105685,5.97892,0.7715315
193,1436372954460,-7.771579,6.0208187,0.6691794
194,1436372954481,-7.872135,6.057929,0.5859809
195,1436372954501,-7.9565306,6.0369797,0.64823014
196,1436372954521,-8.010999,5.990891,0.70509243
197,1436372954541,-8.040328,5.851429,0.75596917
198,1436372954560,-7.884106,5.7484784,0.8798691
199,1436372954581,-7.7350674,5.6682725,0.9744401
200,1436372954601,-7.7440453,5.659893,1.0432734
201,1436372954620,-7.699154,5.6904187,1.0253168
202,1436372954640,-7.762002,5.792771,1.0989386
203,1436372954661,-7.9062524,5.895123,1.0815806
204,1436372954681,-7.892486,6.0088477,1.0785879
205,1436372954701,-7.7428484,5.9861026,1.1994951
206,1436372954722,-7.565677,5.9543796,1.2611457
207,1436372954740,-7.3669586,5.9651537,1.2755109
208,1436372954761,-7.3100963,5.93762,1.3299791
209,1436372954781,-7.3609734,5.9603653,1.2491747
210,1436372954801,-7.415441,5.9358244,1.2198458
211,1436372954820,-7.49026,5.9124813,1.1905168
212,1436372954879,-7.606379,5.8705826,1.1079168
213,1436372954880,-7.713519,5.9052987,1.06123
214,1436372954881,-7.793725,5.9106855,1.0133458
215,1436372954901,-7.827244,5.9268465,0.9900024
216,1436372954920,-7.7829514,5.8963203,1.0043676
217,1436372954942,-7.7105265,5.9124813,1.0247183
218,1436372954959,-7.6255326,5.9280434,1.0181342
219,1436372954980,-7.6135616,5.9801173,1.0372878
220,1436372955000,-7.6231384,5.9920883,1.0600328
221,1436372955020,-7.542334,6.0208187,1.0462662
222,1436372955039,-7.530363,6.0447607,1.0839748
223,1436372955060,-7.587824,6.0226145,1.0402806
224,1436372955081,-7.5321584,6.015432,1.0899603
225,1436372955098,-7.515998,5.9663506,1.0821792
226,1436372955122,-7.5321584,5.981314,1.0540473
227,1436372955139,-7.581838,5.9873,1.0342951
228,1436372955162,-7.615357,5.9663506,0.9684546
229,1436372955182,-7.5908165,5.967548,0.96426475
230,1436372955202,-7.555502,6.0046577,0.90859956
231,1436372955222,-7.5968018,6.0166287,0.8643068
232,1436372955242,-7.615357,6.045359,0.8367735
233,1436372955262,-7.6345105,6.0531406,0.79726917
234,1436372955280,-7.542334,6.0525417,0.7870938
235,1436372955301,-7.506421,6.1183825,0.7882909
236,1436372955322,-7.5309615,6.1279593,0.7350199
237,1436372955340,-7.4992385,6.154894,0.7278373
238,1436372955360,-7.499837,6.1644707,0.741604
239,1436372955382,-7.4974427,6.187814,0.7344214
240,1436372955403,-7.463325,6.2021794,0.7404069
241,1436372955425,-7.4190326,6.179435,0.748188
242,1436372955443,-7.438186,6.183026,0.7422025
243,1436372955462,-7.4723034,6.1369376,0.7386112
244,1436372955480,-7.4447703,6.1117983,0.6877344
245,1436372955499,-7.499837,6.121375,0.6967127
246,1436372955521,-7.5686703,6.142923,0.63087213
247,1436372955540,-7.5962033,6.1249666,0.6003461
248,1436372955563,-7.554305,6.1141925,0.59855044
249,1436372955624,-7.5854297,6.0716953,0.59855044
250,1436372955625,-7.615956,6.043564,0.57041854
251,1436372955626,-7.65127,6.055535,0.53330845
252,1436372955639,-7.6590514,6.045359,0.53689975
253,1436372955664,-7.650073,6.0645127,0.53091425
254,1436372955680,-7.639299,6.051345,0.5470751
255,1436372955701,-7.6440873,6.022016,0.59256494
256,1436372955721,-7.60997,6.0357823,0.5793968
257,1436372955739,-7.597999,6.0369797,0.56922144
258,1436372955761,-7.5680714,6.063316,0.5554548
259,1436372955780,-7.6285253,6.0501475,0.54288524
260,1436372955802,-7.645883,6.0166287,0.5847838
261,1436372955819,-7.595605,5.961562,0.60453594
262,1436372955842,-7.615956,5.9878983,0.6206968
263,1436372955862,-7.7207017,6.0262055,0.50397944
264,1436372955883,-7.6668324,6.0639143,0.4866215
265,1436372955902,-7.6889787,6.105214,0.52612585
266,1436372955922,-7.6841903,6.075287,0.47644615
267,1436372955940,-7.595605,6.033388,0.53211135
268,1436372955961,-7.5189905,5.9890957,0.62249243
269,1436372955983,-7.591415,5.988497,0.65660983
270,1436372956000,-7.700351,6.0483522,0.5614403
271,1436372956034,-7.6841903,6.0441623,0.61112
272,1436372956066,-7.599795,6.0387754,0.66618663
273,1436372956067,-7.5842323,6.042965,0.65660983
274,1436372956079,-7.615956,5.9944825,0.6326678
275,1436372956099,-7.620744,5.979519,0.6973112
276,1436372956122,-7.623737,5.9843073,0.6721721
277,1436372956142,-7.5812397,6.0160303,0.62249243
278,1436372956164,-7.536947,6.0645127,0.5793968
279,1436372956179,-7.6009917,6.114791,0.55725044
280,1436372956199,-7.693767,6.055535,0.51834464
281,1436372956219,-7.739257,6.0627174,0.581791
282,1436372956241,-7.711125,6.0142345,0.5746084
283,1436372956260,-7.678205,6.0046577,0.6254852
284,1436372956279,-7.626131,5.9849057,0.6572084
285,1436372956315,-7.5985975,6.030994,0.6536171
286,1436372956331,-7.5824366,6.0585275,0.6434417
287,1436372956342,-7.5225816,6.0998273,0.6326678
288,1436372956360,-7.483676,6.1650696,0.6823475
289,1436372956381,-7.4842744,6.223727,0.635062
290,1436372956400,-7.478289,6.1860185,0.62847793
291,1436372956420,-7.399879,6.1638722,0.700304
292,1436372956442,-7.430405,6.1519012,0.748188
293,1436372956461,-7.5136037,6.0848637,0.729633
294,1436372956479,-7.5614877,6.077681,0.7272388
295,1436372956499,-7.5686703,6.081272,0.7015011
296,1436372956519,-7.60997,6.141726,0.7338228
297,1436372956539,-7.629722,6.06152,0.641646
298,1436372956561,-7.463325,6.0040593,0.66259533
299,1436372956581,-7.423821,6.063316,0.6889315
300,1436372956603,-7.6009917,6.0531406,0.5255273
301,1436372956622,-7.6165543,6.0142345,0.42197806
302,1436372956640,-7.6105685,6.0405707,0.4866215
303,1436372956660,-7.7308774,6.105214,0.4177882
304,1436372956681,-7.7667904,6.10282,0.35673606
305,1436372956703,-7.6135616,6.184223,0.4770447
306,1436372956720,-7.562086,6.2566476,0.6404489
307,1436372956743,-7.5842323,6.284181,0.6596026
308,1436372956760,-7.4495587,6.2009826,0.7248446
309,1436372956781,-7.27957,6.125565,0.83856916
310,1436372956801,-7.199963,6.0926447,0.9151836
311,1436372956823,-7.3609734,6.1112,0.93373865
312,1436372956843,-7.451953,6.0704985,0.78769237
313,1436372956862,-7.419631,6.0567317,0.81283146
314,1436372956880,-7.466318,6.0645127,0.7344214
315,1436372956901,-7.615357,6.05733,0.623091
316,1436372956921,-7.7290816,6.0681043,0.55365914
317,1436372956941,-7.7727757,6.009446,0.51475334
318,1436372956962,-7.7787614,5.897517,0.5590461
319,1436372956980,-7.7410526,5.903503,0.59376204
320,1436372957049,-7.815273,5.993285,0.5434838
321,1436372957050,-7.838018,6.0836663,0.51834464
322,1436372957051,-7.707534,6.1219735,0.52732295
323,1436372957060,-7.521983,6.149507,0.599149
324,1436372957081,-7.3986816,6.2261214,0.6123171
325,1436372957113,-7.441179,6.285378,0.6356605
326,1436372957122,-7.4926543,6.296152,0.6560113
327,1436372957144,-7.467515,6.22672,0.7302315
328,1436372957164,-7.359776,6.1219735,0.7733272
329,1436372957186,-7.371747,6.1489086,0.7882909
330,1436372957200,-7.527969,6.1608796,0.6697779
331,1436372957221,-7.650073,6.293758,0.6811504
332,1436372957246,-8.019978,6.485294,0.700304
333,1436372957262,-7.9583263,6.5523314,0.5710171
334,1436372957283,-7.4112515,6.682217,0.62488663
335,1436372957304,-6.9264255,6.6989765,0.79607207
336,1436372957324,-6.518214,6.453571,0.8074445
337,1436372957344,-6.2967505,6.3153057,0.87208796
338,1436372957364,-6.7043633,6.3967085,0.8912416
339,1436372957384,-7.602189,6.4230447,0.6536171
340,1436372957404,-7.820061,6.425439,0.5327099
341,1436372957424,-7.313089,6.5499372,0.724246
342,1436372957444,-6.7606273,6.6492968,0.8218097
343,1436372957464,-6.5511346,6.913856,0.8283938
344,1436372957481,-6.5505357,7.0515227,0.6314707
345,1436372957503,-6.4368114,7.2783732,0.50397944
346,1436372957524,-6.3003416,7.4004774,0.4973954
347,1436372957540,-6.217742,7.4866686,0.49559975
348,1436372957561,-6.142923,7.6051817,0.48961425
349,1436372957581,-6.0291986,7.6704235,0.45489833
350,1436372957606,-5.99149,7.6548615,0.5093664
351,1436372957626,-6.0363812,7.560889,0.6003461
352,1436372957658,-6.109404,7.4962454,0.6027403
353,1436372957661,-6.10701,7.4974427,0.6398504
354,1436372957681,-6.127361,7.504027,0.6398504
355,1436372957701,-6.206968,7.5201874,0.6356605
356,1436372957722,-6.2207346,7.475296,0.664391
357,1436372957741,-6.2524576,7.4322004,0.7116765
358,1436372957761,-6.277597,7.36217,0.7314286
359,1436372957796,-6.2865753,7.354389,0.7326257
360,1436372957802,-6.363788,7.32506,0.7398083
361,1436372957825,-6.3739634,7.331644,0.6745663
362,1436372957841,-6.3380504,7.328053,0.676362
363,1436372957861,-6.341642,7.368156,0.6500258
364,1436372957881,-6.353014,7.390302,0.6290765
365,1436372957901,-6.2746043,7.4232225,0.6428431
366,1436372957925,-6.2105594,7.441179,0.66020113
367,1436372957942,-6.196194,7.4627266,0.6302736
368,1436372957962,-6.175245,7.498041,0.6464345
369,1436372957985,-6.2075663,7.519589,0.66618663
370,1436372958002,-6.2644286,7.538144,0.62368953
371,1436372958022,-6.2871737,7.41185,0.6859388
372,1436372958044,-6.2781954,7.3525934,0.7284359
373,1436372958064,-6.291962,7.356185,0.6955156
374,1436372958083,-6.318897,7.3992805,0.682946
375,1436372958103,-6.335656,7.482479,0.62967503
376,1436372958123,-6.2769985,7.459734,0.6254852
377,1436372958146,-6.3338604,7.4788876,0.6805518
378,1436372958164,-6.6241574,7.4447703,0.58657944
379,1436372958181,-7.132327,7.213131,0.65301853
380,1436372958202,-7.6387005,6.8091097,0.7918822
381,1436372958221,-7.9266033,6.4463882,0.8888474
382,1436372958243,-7.98167,6.214749,0.86849666
383,1436372958265,-7.952341,6.1129956,0.8379706
384,1436372958285,-7.6973586,6.105214,0.7224504
385,1436372958304,-7.4345946,6.3129115,0.6278794
386,1436372958324,-7.2664022,6.5828576,0.46148238
387,1436372958344,-6.8462195,6.8246717,0.25677812
388,1436372958364,-6.3991027,6.9689226,0.24001873
389,1436372958385,-5.93762,7.2370734,0.25677812
390,1436372958405,-5.3755813,7.5333557,0.05207389
391,1436372958424,-4.7614684,7.9074497,0.12629414
392,1436372958444,-4.345476,8.1163435,0.2753332
393,1436372958463,-3.982156,8.475474,0.38606504
394,1436372958483,-3.7565024,8.641273,0.50158525
395,1436372958507,-3.3010056,8.655638,0.59136784
396,1436372958573,-2.5791538,8.841188,0.6536171
397,1436372958574,-1.9668367,9.364322,0.82360536
398,1436372958575,-1.7537527,9.624691,1.0253168
399,1436372958582,-1.8531121,9.582792,1.1629834
400,1436372958602,-1.745373,9.490616,1.1569979
401,1436372958624,-1.371279,9.655815,1.146224
402,1436372958642,-1.002572,9.958083,1.240795
403,1436372958669,-0.770933,10.05864,1.3611037
404,1436372958683,-0.60693014,10.03769,1.4059949
405,1436372958703,-0.51116204,10.080787,1.4401124
406,1436372958723,-0.58657944,10.046669,1.4413095
407,1436372958743,-0.64703304,10.007763,1.3940239
408,1436372958764,-0.78170687,10.011953,1.3976152
409,1436372958785,-0.99419224,9.896433,1.412579
410,1436372958805,-1.0199299,9.947908,1.3862427
411,1436372958824,-0.9564836,9.788693,1.3192052
412,1436372958845,-1.1019313,9.669582,1.377863
413,1436372958865,-1.4634558,9.575011,1.3305776
414,1436372958885,-1.6747441,9.494805,1.1821371
415,1436372958905,-1.2892777,9.52593,1.1857284
416,1436372958924,-1.0247183,9.701305,1.3341689
