id,attr_time,attr_x,attr_y,attr_z
1,1436371709004,-5.3899465,8.1343,0.14425065
2,1436371709025,-5.3504424,8.126519,0.16879122
3,1436371709043,-5.329493,8.084022,0.18974048
4,1436371709064,-5.2995653,8.10138,0.19572599
5,1436371709083,-5.2941785,8.112753,0.18375498
6,1436371709104,-5.3199162,8.139688,0.17836803
7,1436371709131,-5.3247046,8.154053,0.18734628
8,1436371709196,-5.324106,8.163031,0.18555063
9,1436371709203,-5.327099,8.121132,0.19572599
10,1436371709204,-5.336077,8.1079645,0.19153613
11,1436371709205,-5.349245,8.114548,0.15322891
12,1436371709222,-5.3522377,8.091205,0.15442601
13,1436371709243,-5.373187,8.10138,0.12449849
14,1436371709261,-5.391144,8.119336,0.11671733
15,1436371709281,-5.410896,8.140884,0.107140526
16,1436371709301,-5.4019175,8.108562,0.095768064
17,1436371709325,-5.403713,8.130111,0.11851298
18,1436371709342,-5.3881507,8.121731,0.09756372
19,1436371709364,-5.374983,8.128315,0.11492168
20,1436371709384,-5.3420625,8.100183,0.12030864
21,1436371709404,-5.3366756,8.125322,0.110731825
22,1436371709423,-5.327099,8.121731,0.12749124
23,1436371709444,-5.3420625,8.131308,0.110133275
24,1436371709464,-5.34326,8.122928,0.093373865
25,1436371709485,-5.357625,8.128315,0.079008654
26,1436371709505,-5.3486466,8.104373,0.09935937
27,1436371709524,-5.370793,8.120534,0.08259996
28,1436371709544,-5.3875523,8.154651,0.073621705
29,1436371709566,-5.3660045,8.139089,0.034117375
30,1436371709582,-5.3516393,8.136096,0.050876785
31,1436371709615,-5.3342814,8.1480665,0.035314474
32,1436371709621,-5.3145294,8.15525,0.04129998
33,1436371709641,-5.3181205,8.160637,0.020949265
34,1436371709661,-5.321712,8.131308,0.048482586
35,1436371709681,-5.331289,8.189965,0.002992752
36,1436371709706,-5.351041,8.181585,0.015562311
37,1436371709721,-5.3737855,8.149862,0.030526072
38,1436371709742,-5.3845596,8.145074,0.049081136
39,1436371709762,-5.3941364,8.133701,0.08499416
40,1436371709781,-5.367202,8.089409,0.09756372
41,1436371709802,-5.3522377,8.081628,0.10055647
42,1436371709822,-5.346851,8.1402855,0.08020575
43,1436371709842,-5.309142,8.15525,0.018555064
44,1436371709915,-5.3079453,8.207922,0.05865794
45,1436371709916,-5.3169236,8.24563,0.035314474
46,1436371709917,-5.33907,8.207323,0.05686229
47,1436371709924,-5.325303,8.079233,0.09876082
48,1436371709942,-5.3276973,8.083424,0.09636662
49,1436371709962,-5.363012,8.081029,0.11671733
50,1436371709982,-5.4019175,8.127118,0.09816227
51,1436371710004,-5.3983264,8.164826,0.0796072
52,1436371710022,-5.3923407,8.170214,0.065242
53,1436371710043,-5.3779755,8.171411,0.0724246
54,1436371710065,-5.345055,8.12233,0.109534726
55,1436371710083,-5.3384714,8.139089,0.13467385
56,1436371710103,-5.2852,8.103176,0.16938977
57,1436371710123,-5.2846017,8.109161,0.16998832
58,1436371710145,-5.2756233,8.1343,0.17657238
59,1436371710165,-5.3127337,8.161235,0.1400608
60,1436371710185,-5.312135,8.143278,0.16759412
61,1436371710203,-5.3157263,8.150461,0.12988544
62,1436371710225,-5.3235073,8.122928,0.14544775
63,1436371710245,-5.33069,8.124723,0.13467385
64,1436371710265,-5.3528366,8.136695,0.13467385
65,1436371710285,-5.3701944,8.147469,0.12988544
66,1436371710309,-5.3857565,8.157045,0.12569559
67,1436371710325,-5.3660045,8.153454,0.10654198
68,1436371710345,-5.353435,8.159439,0.12150574
69,1436371710365,-5.358822,8.1756,0.11192893
70,1436371710385,-5.3402667,8.169016,0.1352724
71,1436371710406,-5.300164,8.154651,0.1400608
72,1436371710424,-5.2840033,8.16722,0.17118542
73,1436371710442,-5.269039,8.191761,0.18255788
74,1436371710462,-5.1960163,8.170812,0.19572599
75,1436371710482,-5.2002063,8.180388,0.20949265
76,1436371710502,-5.1942205,8.20433,0.17238252
77,1436371710523,-5.2049947,8.216302,0.15622166
78,1436371710544,-5.21098,8.231864,0.14425065
79,1436371710570,-5.228338,8.218098,0.14784196
80,1436371710630,-5.245097,8.240244,0.15622166
81,1436371710631,-5.254674,8.222886,0.15622166
82,1436371710632,-5.2223525,8.221688,0.17657238
83,1436371710642,-5.2319293,8.190564,0.13706805
84,1436371710662,-5.2026005,8.158841,0.16879122
85,1436371710686,-5.2145715,8.201937,0.14185645
86,1436371710702,-5.258864,8.218098,0.11252748
87,1436371710722,-5.265448,8.173804,0.13108255
88,1436371710744,-5.283405,8.154651,0.13347675
89,1436371710762,-5.309142,8.132504,0.1316811
90,1436371710784,-5.341464,8.14687,0.110133275
91,1436371710806,-5.355231,8.144476,0.11432313
92,1436371710823,-5.3743844,8.121731,0.12868834
93,1436371710844,-5.3875523,8.090606,0.12988544
94,1436371710866,-5.397129,8.110358,0.10295067
95,1436371710886,-5.4102974,8.115746,0.089184016
96,1436371710906,-5.4234653,8.094796,0.060453594
97,1436371710922,-5.415684,8.106767,0.051475335
98,1436371710945,-5.415086,8.10557,0.05925649
99,1436371710966,-5.4366336,8.115147,0.05626374
100,1436371710986,-5.4384294,8.102577,0.06284779
101,1436371711006,-5.4312468,8.098388,0.034715924
102,1436371711025,-5.4019175,8.106767,0.048482586
103,1436371711048,-5.400122,8.112753,0.0688333
104,1436371711066,-5.3701944,8.109161,0.046088383
105,1436371711089,-5.3618145,8.125322,0.065242
106,1436371711105,-5.361216,8.1079645,0.0724246
107,1436371711129,-5.33907,8.079233,0.079008654
108,1436371711144,-5.336077,8.113351,0.048482586
109,1436371711163,-5.3300915,8.173206,-0.0035913025
110,1436371711183,-5.358822,8.1881695,0.049679685
111,1436371711204,-5.363012,8.203134,0.02932897
112,1436371711225,-5.333084,8.160038,0.047884032
113,1436371711245,-5.322909,8.075643,0.05686229
114,1436371711265,-5.309741,8.036138,0.07062895
115,1436371711284,-5.348048,8.1079645,0.035314474
116,1436371711386,-5.3648076,8.1756,0.023942016
117,1436371711387,-5.3504424,8.205527,-0.032920275
118,1436371711388,-5.33069,8.169615,-0.046686932
119,1436371711389,-5.3163247,8.156446,-0.047285482
120,1436371711390,-5.331289,8.154053,-0.06584055
121,1436371711403,-5.315128,8.14687,-0.0688333
122,1436371711426,-5.317522,8.125322,-0.061052144
123,1436371711443,-5.2995653,8.094197,-0.05805939
124,1436371711468,-5.3642087,8.161834,-0.108936176
125,1436371711486,-5.4025164,8.201937,-0.09876082
126,1436371711504,-5.41748,8.160038,-0.079008654
127,1436371711525,-5.422867,8.183381,-0.037708677
128,1436371711544,-5.401319,8.166622,-0.009576807
129,1436371711564,-5.373187,8.139688,0.023942016
130,1436371711587,-5.3276973,8.136096,0.05746084
131,1436371711607,-5.297171,8.165425,0.073023155
132,1436371711627,-5.2439003,8.1881695,0.079008654
133,1436371711644,-5.2026005,8.216302,0.10534488
134,1436371711665,-5.1720743,8.218098,0.110731825
135,1436371711684,-5.1798553,8.222886,0.12150574
136,1436371711707,-5.2002063,8.207323,0.15442601
137,1436371711727,-5.218761,8.210915,0.15382746
138,1436371711743,-5.245696,8.170214,0.16340427
139,1436371711767,-5.2516813,8.1642275,0.16998832
140,1436371711785,-5.263054,8.166023,0.17717093
141,1436371711807,-5.305551,8.161235,0.16759412
142,1436371711824,-5.28939,8.177995,0.18674773
143,1436371711846,-5.2786164,8.1720085,0.16460137
144,1436371711864,-5.276222,8.170812,0.19752164
145,1436371711890,-5.2624555,8.149264,0.19153613
146,1436371711907,-5.2421045,8.143877,0.17836803
147,1436371711930,-5.2594624,8.169016,0.16998832
148,1436371711948,-5.2528787,8.161834,0.15622166
149,1436371711967,-5.267244,8.173804,0.14544775
150,1436371711984,-5.288193,8.158242,0.17717093
151,1436371712005,-5.2852,8.147469,0.1604115
152,1436371712026,-5.2887917,8.158242,0.14784196
153,1436371712044,-5.298967,8.168418,0.10594343
154,1436371712115,-5.3127337,8.142081,0.12210429
155,1436371712116,-5.3169236,8.154053,0.09756372
156,1436371712117,-5.317522,8.163031,0.08080431
157,1436371712124,-5.3103395,8.145673,0.08619126
158,1436371712145,-5.3288946,8.108562,0.061650693
159,1436371712170,-5.331289,8.110957,0.032920275
160,1436371712184,-5.354632,8.121731,0.008379706
161,1436371712204,-5.3606176,8.127716,0.0011971008
162,1436371712225,-5.374983,8.145673,-0.022146367
163,1436371712246,-5.403713,8.202535,-0.035314474
164,1436371712266,-5.390545,8.223484,-0.06584055
165,1436371712285,-5.3528366,8.18398,-0.047884032
166,1436371712305,-5.329493,8.198345,-0.05925649
167,1436371712327,-5.3199162,8.185177,-0.08559271
168,1436371712347,-5.309142,8.153454,-0.0700304
169,1436371712364,-5.298967,8.131308,-0.08439561
170,1436371712385,-5.307347,8.154053,-0.088585466
171,1436371712407,-5.307347,8.176797,-0.092775315
172,1436371712425,-5.3223104,8.245032,-0.05925649
173,1436371712447,-5.2965727,8.270171,-0.061650693
174,1436371712466,-5.2008047,8.1881695,-0.0023942017
175,1436371712485,-5.142745,8.2169,-0.024540568
176,1436371712506,-5.1319714,8.29531,-0.05626374
177,1436371712527,-5.149329,8.357559,-0.074818805
178,1436371712555,-5.1367598,8.387487,-0.088585466
179,1436371712565,-5.1223946,8.397064,-0.06943185
180,1436371712584,-5.094861,8.352771,-0.027533319
181,1436371712605,-5.1301756,8.263587,0.0700304
182,1436371712626,-5.1601033,8.289325,0.107140526
183,1436371712644,-5.2247467,8.281544,0.18076223
184,1436371712664,-5.2181625,8.239047,0.22804771
185,1436371712684,-5.2037973,8.192958,0.29867667
186,1436371712706,-5.213374,8.16363,0.33758244
187,1436371712724,-5.2205567,8.154651,0.34356794
188,1436371712745,-5.21936,8.160637,0.40581718
189,1436371712773,-5.2026005,8.128315,0.42796355
190,1436371712784,-5.158906,8.089409,0.49559975
191,1436371712827,-5.1720743,8.16722,0.51235914
192,1436371712828,-5.168483,8.280347,0.53091425
193,1436371712844,-5.167286,8.272566,0.5602432
194,1436371712865,-5.13257,8.191761,0.58657944
195,1436371712885,-5.1319714,8.166622,0.58777654
196,1436371712905,-5.122993,8.159439,0.5722142
197,1436371712930,-5.1379566,8.079832,0.5422867
198,1436371712945,-5.1367598,8.008605,0.545878
199,1436371712967,-5.2259436,8.040926,0.50876784
200,1436371712984,-5.2702365,8.112753,0.47285482
201,1436371713006,-5.3402667,8.091804,0.45130703
202,1436371713026,-5.4378304,8.164826,0.439336
203,1436371713044,-5.4917,8.208521,0.4309563
204,1436371713067,-5.4743423,8.154053,0.44352585
205,1436371713086,-5.4138885,8.094796,0.45549688
206,1436371713104,-5.3522377,8.04751,0.47165772
207,1436371713126,-5.273828,8.040328,0.4417302
208,1436371713145,-5.217564,8.125322,0.40043023
209,1436371713168,-5.1984105,8.242638,0.3705027
210,1436371713186,-5.1690817,8.3629465,0.35075054
211,1436371713205,-5.1182046,8.384495,0.35913026
212,1436371713225,-5.04997,8.37372,0.38067806
213,1436371713247,-5.031415,8.380903,0.36631286
214,1436371713268,-5.01705,8.345589,0.40282443
215,1436371713286,-5.017648,8.240842,0.39803603
216,1436371713305,-4.964976,8.128315,0.40102878
217,1436371713324,-5.00867,8.180987,0.37708676
218,1436371713344,-5.048773,8.205527,0.3357868
219,1436371713366,-5.2265425,8.226477,0.3184288
220,1436371713387,-5.300164,8.357559,0.30585927
221,1436371713407,-5.3235073,8.306683,0.2753332
222,1436371713425,-5.3259015,8.161235,0.3309984
223,1436371713445,-5.29777,8.109161,0.3196259
224,1436371713465,-5.3857565,8.142081,0.3274071
225,1436371713535,-5.4126916,8.14268,0.30585927
226,1436371713536,-5.386954,8.113351,0.2693477
227,1436371713537,-5.370793,8.127716,0.23642741
228,1436371713545,-5.4282537,8.273164,0.19812019
229,1436371713573,-5.33907,8.182783,0.15382746
230,1436371713585,-5.2241483,7.8853035,0.19093758
231,1436371713606,-5.3043537,7.9972324,0.16340427
232,1436371713628,-5.42167,8.049306,0.1448492
233,1436371713646,-5.48751,8.115746,0.15263036
234,1436371713666,-5.445013,8.072051,0.1376666
235,1436371713687,-5.4204726,8.024766,0.1316811
236,1436371713708,-5.457583,8.028955,0.12868834
237,1436371713726,-5.45878,8.109759,0.08140286
238,1436371713747,-5.45878,8.0367365,0.076614454
239,1436371713768,-5.4474072,7.9212165,0.12090719
240,1436371713788,-5.4683566,7.969699,0.09756372
241,1436371713808,-5.5126495,7.980473,0.044292733
242,1436371713827,-5.5018754,8.0924015,-0.016759412
243,1436371713847,-5.5581393,8.171411,-0.019752163
244,1436371713868,-5.5192337,8.008605,-0.089184016
245,1436371713888,-5.5976434,7.915829,-0.10354923
246,1436371713908,-5.647922,8.008006,-0.14065935
247,1436371713936,-5.580884,7.7733746,-0.15382746
248,1436371713966,-5.884948,7.9906483,-0.093972415
249,1436371713967,-5.715558,8.104373,-0.18674773
250,1436371713986,-5.761048,7.891887,0.013766659
251,1436371714006,-5.637148,7.9248075,-0.1400608
252,1436371714026,-5.635352,7.8948803,-0.11372458
253,1436371714046,-5.6880245,7.993641,-0.10474633
254,1436371714066,-5.7017913,8.050503,-0.15083471
255,1436371714086,-5.6724625,7.902063,-0.09876082
256,1436371714106,-5.5862713,8.002619,-0.07062895
257,1436371714126,-5.4922986,7.9278,-0.036511578
258,1436371714146,-5.501277,7.961319,-0.020949265
259,1436371714170,-5.4845176,8.021772,-0.022146367
260,1436371714206,-5.457583,8.136695,0.04369418
261,1436371714207,-5.3342814,7.93199,0.012569559
262,1436371714233,-5.4671597,7.8888946,0.06584055
263,1436371714247,-5.605425,8.121132,-0.033518825
264,1436371714266,-5.549161,8.110957,-0.061650693
265,1436371714286,-5.531803,7.9966335,0.05686229
266,1436371714306,-5.5563436,7.9068513,-0.023343466
267,1436371714327,-5.5778913,7.903858,-0.026934769
268,1436371714347,-5.6521115,7.9505453,-0.049679685
269,1436371714366,-5.673061,8.013393,-0.044292733
270,1436371714387,-5.551555,7.9487495,-0.020350715
271,1436371714406,-5.6245785,7.835025,-0.050278235
272,1436371714426,-5.6964045,7.9942393,-0.142455
273,1436371714446,-5.625177,8.069656,-0.12449849
274,1436371714466,-5.637148,7.923012,-0.1376666
275,1436371714485,-5.6179943,8.075044,-0.1412579
276,1436371714506,-5.581483,8.037335,-0.11312603
277,1436371714526,-5.5647235,7.9996266,-0.06284779
278,1436371714546,-5.493496,8.070255,-0.092176765
279,1436371714567,-5.34326,7.996035,-0.050876785
280,1436371714589,-5.4312468,7.9146323,-0.08020575
281,1436371714610,-5.4539914,8.106169,-0.12330139
282,1436371714626,-5.5641246,7.996035,-0.09696517
283,1436371714647,-5.57849,7.929596,-0.11492168
284,1436371714666,-5.641338,7.904457,-0.13108255
285,1436371714689,-5.671864,8.061277,-0.12210429
286,1436371714710,-5.6880245,8.01878,-0.15263036
287,1436371714730,-5.6126075,7.9074497,-0.10295067
288,1436371714747,-5.6066217,7.9451585,-0.09995792
289,1436371714767,-5.5976434,8.017583,-0.14963761
290,1436371714786,-5.5563436,8.091804,-0.17357962
291,1436371714809,-5.6126075,8.037335,-0.12988544
292,1436371714830,-5.575497,8.041525,-0.10594343
293,1436371714850,-5.5000796,7.8667483,-0.1388637
294,1436371714870,-5.5467668,7.7350674,-0.051475335
295,1436371714885,-5.6377463,8.118738,-0.12210429
296,1436371714905,-5.6377463,8.269572,-0.22744916
297,1436371714925,-5.655703,7.889493,-0.095768064
298,1436371714945,-5.553351,8.016386,-0.02813187
299,1436371714965,-5.263054,8.065467,-0.10474633
300,1436371714987,-5.37199,7.98167,0.021547815
301,1436371715007,-5.306748,8.167819,-0.11133038
302,1436371715029,-5.3678,8.080431,-0.04369418
303,1436371715049,-5.4761376,8.019379,-0.04309563
304,1436371715073,-5.559336,8.106767,-0.078410104
305,1436371715090,-5.5467668,8.199542,-0.011372458
306,1436371715114,-5.590461,7.9673047,-0.020350715
307,1436371715128,-5.5862713,7.732673,0.10295067
308,1436371715149,-5.549161,7.9325886,-0.0005985504
309,1436371715170,-5.439028,8.0445175,-0.09756372
310,1436371715188,-5.363012,8.15106,-0.05925649
311,1436371715210,-5.3199162,8.130111,-0.05626374
312,1436371715230,-5.4432178,8.126519,-0.047884032
313,1436371715248,-5.518635,8.088212,-0.053869538
314,1436371715270,-5.573103,8.08462,0.027533319
315,1436371715290,-5.553351,7.97748,0.046686932
316,1436371715310,-5.475539,7.897873,0.05805939
317,1436371715330,-5.4617724,7.849989,0.05925649
318,1436371715347,-5.494693,7.8823104,-0.062249243
319,1436371715369,-5.5880666,8.06008,-0.076015905
320,1436371715389,-5.6323595,8.199542,-0.16639702
321,1436371715409,-5.657499,8.096592,-0.10594343
322,1436371715430,-5.5976434,8.0367365,-0.0796072
323,1436371715450,-5.5671177,7.8571715,-0.074220255
324,1436371715470,-5.579687,7.8888946,-0.047285482
325,1436371715490,-5.635352,7.893683,-0.08200141
326,1436371715517,-5.5347958,8.039729,-0.0688333
327,1436371715574,-5.515642,7.945757,-0.08379706
328,1436371715575,-5.637148,8.037335,-0.09696517
329,1436371715576,-5.6281695,8.313267,-0.12389994
330,1436371715593,-5.501277,8.109161,-0.107140526
331,1436371715607,-5.3713913,7.884106,-0.0017956513
332,1436371715635,-5.4551888,7.892486,-0.039504327
333,1436371715652,-5.517438,7.9996266,-0.06584055
334,1436371715667,-5.492897,8.135497,-0.05207389
335,1436371715688,-5.468955,8.033744,-0.029927522
336,1436371715707,-5.418677,7.9966335,-0.025139118
337,1436371715731,-5.519832,8.1163435,-0.055066638
338,1436371715754,-5.492897,8.058285,-0.06464344
339,1436371715768,-5.498883,7.9595237,-0.02873042
340,1436371715787,-5.518635,8.009802,-0.02813187
341,1436371715811,-5.5096564,8.048708,-0.04309563
342,1436371715831,-5.507262,8.074445,-0.050278235
343,1436371715851,-5.5102553,8.034343,-0.05327099
344,1436371715870,-5.5563436,8.01459,-0.039504327
345,1436371715891,-5.571906,8.036138,-0.049081136
346,1436371715910,-5.543774,8.057686,-0.049081136
347,1436371715931,-5.4593782,8.066066,-0.049081136
348,1436371715951,-5.504868,7.8847046,-0.06584055
349,1436371715973,-5.4713492,8.114548,-0.044891283
350,1436371715987,-5.431845,8.152855,-0.10175357
351,1436371716011,-5.3618145,8.024167,-0.044891283
352,1436371716031,-5.333683,8.062474,-0.035913024
353,1436371716050,-5.373187,8.128913,-0.065242
354,1436371716068,-5.3725886,8.087613,-0.04070143
355,1436371716090,-5.395932,8.05589,-0.046088383
356,1436371716160,-5.4857144,8.037335,-0.0664391
357,1436371716161,-5.535993,8.109759,-0.08499416
358,1436371716162,-5.5084596,8.033145,-0.095768064
359,1436371716172,-5.5120506,7.9996266,-0.090381116
360,1436371716219,-5.504868,8.050503,-0.13108255
361,1436371716220,-5.4737434,8.02716,-0.1352724
362,1436371716237,-5.4444146,8.087613,-0.1412579
363,1436371716248,-5.4264584,8.0924015,-0.1388637
364,1436371716282,-5.4043117,8.0606785,-0.08798691
365,1436371716292,-5.434838,8.069058,-0.08619126
366,1436371716308,-5.455787,8.054693,-0.09696517
367,1436371716329,-5.461174,8.017583,-0.092775315
368,1436371716349,-5.509058,8.013991,-0.077213004
369,1436371716368,-5.533599,8.005013,-0.090979666
370,1436371716394,-5.5701103,8.021174,-0.076015905
371,1436371716422,-5.6042275,8.033744,-0.08080431
372,1436371716440,-5.607819,8.013393,-0.10534488
373,1436371716470,-5.565322,7.9864583,-0.0700304
374,1436371716471,-5.5503583,7.9062524,-0.08259996
375,1436371716507,-5.547365,7.913435,-0.075417355
376,1436371716508,-5.571307,7.991845,-0.14604631
377,1436371716530,-5.5802855,7.9996266,-0.14903906
378,1436371716547,-5.6299653,8.034343,-0.17417817
379,1436371716567,-5.6299653,8.009802,-0.20590134
380,1436371716587,-5.6521115,7.9529395,-0.14544775
381,1436371716607,-5.649119,7.887099,-0.12449849
382,1436371716627,-5.6569,7.890092,-0.088585466
383,1436371716650,-5.687426,7.955932,-0.11911154
384,1436371716671,-5.683236,8.022371,-0.11911154
385,1436371716690,-5.6281695,7.9732904,-0.12270284
386,1436371716711,-5.5737014,7.9391727,-0.11432313
387,1436371716731,-5.5551467,7.934983,-0.11731588
388,1436371716749,-5.5443726,7.9822683,-0.1340753
389,1436371716771,-5.5760956,7.952341,-0.1388637
390,1436371716788,-5.599439,7.953538,-0.15083471
391,1436371716811,-5.683835,8.005612,-0.20709845
392,1436371716830,-5.9448028,8.016984,-0.3226187
393,1436371716851,-6.290765,8.070255,-0.45549688
394,1436371716871,-6.854001,8.040926,-0.6937199
395,1436371716891,-7.277176,8.006809,-0.8607155
396,1436371716911,-7.2670007,7.9487495,-0.6745663
397,1436371716931,-7.1395097,7.583634,-0.6183026
398,1436371716950,-6.947375,7.53575,-0.4902128
399,1436371716968,-6.918046,7.7464395,-0.36990416
400,1436371716990,-6.5577183,7.757812,-0.26515785
401,1436371717010,-5.777209,7.5471225,-0.038905777
402,1436371717031,-5.0038815,7.539341,0.12210429
403,1436371717062,-4.4179006,7.687183,0.20649989
404,1436371717068,-3.9815574,7.85358,0.35314476
405,1436371717089,-3.4231098,7.852383,0.47225627
406,1436371717111,-2.9933507,7.713519,0.6913257
407,1436371717128,-2.5169046,7.554305,0.9540894
408,1436371717153,-1.95307,6.9767036,1.2024878
409,1436371717176,-1.0642227,6.489484,1.7220296
