id,attr_time,attr_x,attr_y,attr_z
1,1437142188117,-8.907627,3.9193082,-0.57640404
2,1437142188118,-8.915408,3.9163153,-0.6171055
3,1437142188119,-9.003395,3.9456444,-0.5967548
4,1437142188120,-8.932767,3.8965633,-0.55964464
5,1437142188121,-8.932767,3.8780081,-0.54767364
6,1437142188122,-8.831013,3.8911762,-0.5482722
7,1437142188134,-8.925584,3.933075,-0.56203884
8,1437142188160,-8.890868,3.9893386,-0.5386954
9,1437142188171,-8.863335,3.964798,-0.5267244
10,1437142188191,-8.810063,3.970185,-0.4914099
11,1437142188225,-8.814254,3.9749734,-0.46806642
12,1437142188232,-8.807071,4.006098,-0.48602295
13,1437142188252,-8.839393,4.0456023,-0.47225627
14,1437142188273,-8.848969,4.097078,-0.52073884
15,1437142188293,-8.825027,4.122815,-0.5267244
16,1437142188315,-8.834005,4.1802764,-0.52133745
17,1437142188334,-8.786121,4.179079,-0.5267244
18,1437142188353,-8.774749,4.18686,-0.54168814
19,1437142188375,-8.76996,4.1802764,-0.50757074
20,1437142188392,-8.7538,4.1611223,-0.5093664
21,1437142188413,-8.744224,4.1359835,-0.44951138
22,1437142188435,-8.765771,4.080917,-0.46507367
23,1437142188453,-8.7849245,4.06296,-0.45489833
24,1437142188475,-8.862736,4.0743327,-0.42676646
25,1437142188497,-8.922591,4.072537,-0.45609543
26,1437142188513,-8.887277,4.0946836,-0.45789108
27,1437142188535,-8.830415,4.0803185,-0.43514615
28,1437142188553,-8.820838,4.0803185,-0.42197806
29,1437142188575,-8.79929,4.0916905,-0.45429978
30,1437142188593,-8.754997,4.132392,-0.45789108
31,1437142188614,-8.775348,4.1401734,-0.43873745
32,1437142188634,-8.713697,4.1317935,-0.4297592
33,1437142188654,-8.690952,4.201824,-0.4201824
34,1437142188675,-8.735245,4.2880154,-0.45549688
35,1437142188692,-8.710106,4.3263226,-0.5374983
36,1437142188713,-8.672397,4.410718,-0.60573304
37,1437142188734,-8.558673,4.4184995,-0.5979519
38,1437142188759,-8.576031,4.435259,-0.5967548
39,1437142188829,-8.6017685,4.469376,-0.60453594
40,1437142188833,-8.531737,4.4621935,-0.6278794
41,1437142188834,-8.655039,4.4819455,-0.6548142
42,1437142188835,-8.612542,4.43466,-0.62847793
43,1437142188854,-8.644265,4.4687777,-0.65062433
44,1437142188877,-8.598177,4.5142674,-0.664391
45,1437142188892,-8.623316,4.5124717,-0.6805518
46,1437142188912,-8.72088,4.548983,-0.6985083
47,1437142188946,-8.629301,4.5603557,-0.7164649
48,1437142188952,-8.599374,4.5537715,-0.6937199
49,1437142188973,-8.548497,4.4873323,-0.6967127
50,1437142188997,-8.597578,4.4699745,-0.65541273
51,1437142189013,-8.63828,4.5022964,-0.65541273
52,1437142189036,-8.614338,4.531027,-0.64942724
53,1437142189053,-8.615535,4.489128,-0.623091
54,1437142189073,-8.660426,4.4807487,-0.6183026
55,1437142189096,-8.617331,4.4753613,-0.635062
56,1437142189113,-8.62152,4.51726,-0.6183026
57,1437142189136,-8.692149,4.541202,-0.635062
58,1437142189153,-8.643068,4.505289,-0.6326678
59,1437142189173,-8.608951,4.537611,-0.6254852
60,1437142189197,-8.611345,4.5286326,-0.60932434
61,1437142189219,-8.636484,4.481347,-0.5554548
62,1437142189236,-8.629301,4.437653,-0.5069722
63,1437142189253,-8.683171,4.390966,-0.47644615
64,1437142189273,-8.694544,4.4035354,-0.4938041
65,1437142189296,-8.70831,4.346673,-0.45549688
66,1437142189313,-8.798093,4.255095,-0.37110126
67,1437142189336,-8.811859,4.2179847,-0.33518824
68,1437142189354,-8.176797,4.313154,-0.33758244
69,1437142189373,-7.697957,4.797382,-0.57281274
70,1437142189396,-7.8709383,5.419874,-0.80086046
71,1437142189412,-8.206725,5.5766945,-0.9056068
72,1437142189433,-8.337808,5.4222684,-0.8996213
73,1437142189476,-8.449138,5.34326,-0.89902276
74,1437142189477,-8.104971,5.3145294,-0.8726865
75,1437142189549,-8.271368,5.354632,-0.9175778
76,1437142189551,-8.255207,5.318719,-0.85413146
77,1437142189553,-8.182184,5.2343235,-0.8265981
78,1437142189554,-8.135497,5.279215,-0.830788
79,1437142189579,-8.162432,5.2852,-0.866701
80,1437142189595,-7.928399,5.3378725,-0.90021986
81,1437142189638,-7.929596,5.3941364,-0.9020155
82,1437142189639,-8.036138,5.5748987,-0.93852705
83,1437142189653,-7.9649105,5.5748987,-0.86969376
84,1437142189685,-7.675212,5.6999955,-0.90979666
85,1437142189693,-7.6069775,5.9926867,-0.95229375
86,1437142189713,-7.668628,6.1040173,-0.9463082
87,1437142189738,-7.711724,6.005855,-0.9175778
88,1437142189753,-7.675811,6.1112,-0.9540894
89,1437142189773,-7.5525093,6.208165,-0.9427169
90,1437142189794,-7.41604,6.2351,-0.97862995
91,1437142189816,-7.375937,6.2620344,-0.9355343
92,1437142189834,-7.2472486,6.3218894,-0.9636662
93,1437142189854,-7.3178773,6.4248405,-0.973243
94,1437142189876,-7.619547,6.321291,-0.88765025
95,1437142189894,-7.915829,6.078878,-0.85891986
96,1437142189916,-7.855974,5.8292828,-0.78888947
97,1437142189934,-7.8446016,5.657499,-0.7589619
98,1437142189954,-7.912238,5.590461,-0.7410054
99,1437142189974,-7.8236527,5.533,-0.6973112
100,1437142189996,-7.74225,5.5802855,-0.724246
101,1437142190013,-7.8236527,5.7323174,-0.8002619
102,1437142190033,-7.8428063,5.8226986,-0.89782566
103,1437142190054,-7.824251,5.8304796,-0.9187749
104,1437142190074,-7.788338,5.8161144,-0.9068039
105,1437142190096,-7.73806,5.835268,-0.8936358
106,1437142190115,-7.80809,5.849633,-0.8798691
107,1437142191501,-7.8092875,5.856816,-0.82240826
108,1437142191502,-7.715315,5.843648,-0.8283938
109,1437142191503,-7.603386,5.8412538,-0.842759
110,1437142191504,-7.709928,5.8783636,-0.85891986
111,1437142191505,-7.8266454,5.8933277,-0.87567925
112,1437142191506,-7.8224554,5.831677,-0.85293436
113,1437142191507,-7.9026613,5.8161144,-0.87807345
114,1437142191508,-7.8463974,5.749077,-0.86729956
115,1437142191509,-7.8475947,5.7508726,-0.83737206
116,1437142191510,-7.837419,5.751471,-0.83018947
117,1437142191511,-7.869741,5.713164,-0.8146271
118,1437142191512,-7.8703394,5.675455,-0.81642276
119,1437142191513,-7.8583684,5.671265,-0.79846627
120,1437142191514,-7.8302364,5.6425347,-0.8367735
121,1437142191515,-7.8912888,5.6389437,-0.85473
122,1437142191516,-7.9074497,5.6138043,-0.84814596
123,1437142191517,-7.945757,5.6108117,-0.931943
124,1437142191518,-7.960122,5.6150017,-0.97384155
125,1437142191519,-8.01878,5.6000376,-1.0061632
126,1437142191520,-7.9092455,5.543774,-1.0444705
127,1437142191521,-7.9062524,5.511452,-1.0702082
128,1437142191522,-7.9583263,5.5264163,-1.1599907
129,1437142191523,-8.025364,5.5431757,-1.2186487
130,1437142191524,-7.963713,5.481525,-1.2719196
131,1437142191525,-7.903858,5.4025164,-1.3221979
132,1437142191526,-7.9565306,5.355231,-1.3922282
133,1437142191527,-7.991845,5.363012,-1.4359225
134,1437142191528,-7.955932,5.378574,-1.4520833
135,1437142191529,-8.063073,5.4126916,-1.5352819
136,1437142191530,-8.079832,5.4791307,-1.553837
137,1437142191531,-8.08881,5.5138464,-1.5729905
138,1437142191532,-7.941567,5.505467,-1.5795746
139,1437142191533,-7.81647,5.5485625,-1.5370775
140,1437142191534,-7.8422074,5.6126075,-1.536479
141,1437142191535,-7.9182234,5.6401405,-1.5532384
142,1437142191536,-7.9188223,5.6443305,-1.496376
143,1437142191537,-7.823054,5.6120086,-1.429937
144,1437142191538,-7.8475947,5.5623293,-1.3790601
145,1437142191539,-7.8493905,5.571307,-1.3006501
146,1437142191540,-7.8116817,5.551555,-1.2533646
147,1437142191541,-7.917625,5.5766945,-1.192911
148,1437142191542,-7.8888946,5.571307,-1.1168951
149,1437142191543,-7.8930845,5.7125654,-0.94092125
150,1437142191544,-7.952341,5.893926,-0.7457938
151,1437142191545,-7.73387,6.054936,-0.61411273
152,1437142191546,-7.763199,6.208165,-0.6194997
153,1437142191547,-7.6907744,6.239888,-0.64463884
154,1437142191548,-7.6907744,6.2165446,-0.65182143
155,1437142191549,-7.7769656,6.2063694,-0.5781997
156,1437142191550,-7.587225,6.169259,-0.39564183
157,1437142191551,-7.2209125,6.0740895,-0.27234045
158,1437142191552,-7.3699512,6.0860605,-0.15083471
159,1437142191553,-7.800309,6.0531406,0.022146367
160,1437142191554,-8.191761,6.001665,0.20829555
161,1437142191555,-8.095394,5.9801173,0.4141969
162,1437142191556,-8.08462,5.999271,0.5626374
163,1437142191557,-7.923012,6.0303955,0.6404489
164,1437142191558,-7.699753,6.120178,0.6290765
165,1437142191559,-7.429806,6.095039,0.65182143
166,1437142191560,-7.417835,6.0160303,0.64583594
167,1437142191561,-7.4148426,5.94181,0.58298814
168,1437142191562,-7.2969284,5.7598505,0.55006784
169,1437142191563,-7.3657618,5.553351,0.47524905
170,1437142191564,-7.760206,5.4342394,0.4758476
171,1437142191565,-7.709928,5.2618566,0.56443304
172,1437142191566,-7.8823104,5.205593,0.55605334
173,1437142191567,-7.6967597,5.195418,0.56084174
174,1437142191568,-7.3843164,5.151125,0.5506664
175,1437142191569,-7.8547773,5.3169236,0.48003745
176,1437142191570,-7.963713,5.4007206,0.4141969
177,1437142191571,-7.6309195,5.3845596,0.3705027
178,1437142191572,-7.569867,5.4917,0.28491
179,1437142191573,-7.6823945,5.591658,0.19931729
180,1437142191593,-7.6009917,5.563526,0.08738836
181,1437142191613,-7.8930845,5.623381,-0.107140526
182,1437142191633,-7.9289975,5.507262,-0.33638534
183,1437142191653,-7.7757688,5.5270147,-0.61890113
184,1437142191673,-8.118139,5.5862713,-0.8571242
185,1437142191693,-8.435371,5.8562174,-1.1139023
186,1437142191713,-9.091382,5.9250507,-1.3084313
187,1437142191733,-8.757391,5.689222,-1.417966
188,1437142191754,-7.498041,5.173271,-1.3485341
189,1437142191778,-8.488642,5.276222,-1.401805
190,1437142191795,-9.47206,5.7083755,-1.5065514
191,1437142191818,-9.570822,6.0800753,-1.6106992
192,1437142191837,-9.307459,6.161478,-1.673547
193,1437142191856,-8.66701,6.1064115,-1.7274165
194,1437142191877,-8.694544,6.069301,-1.7316064
195,1437142191899,-9.519944,6.0501475,-1.8513165
196,1437142191918,-10.005967,6.077681,-1.963844
197,1437142191938,-10.655993,6.3284736,-2.2122424
198,1437142191961,-10.663176,6.754043,-2.7132292
199,1437142191975,-9.91439,7.3005195,-3.3093853
200,1437142191994,-9.433753,7.9188223,-4.052785
201,1437142192017,-8.073248,8.067862,-4.7279496
202,1437142192036,-6.4026937,7.855974,-5.039196
203,1437142192059,-5.468955,7.228095,-5.1002483
204,1437142192078,-5.41329,6.5643024,-5.1624975
205,1437142192109,-5.769428,6.14412,-5.1062336
206,1437142192115,-6.271013,5.897517,-4.9943047
207,1437142192135,-6.371569,5.798158,-4.8799815
208,1437142192155,-6.407482,5.7766104,-4.7800236
209,1437142192177,-6.1728506,5.829881,-4.673482
210,1437142192197,-6.187216,5.8424506,-4.4484267
211,1437142192215,-6.533178,5.7909756,-4.2239704
212,1437142192240,-6.2345014,5.6545057,-3.822343
213,1437142192255,-5.647922,5.3660045,-3.357868
214,1437142192275,-5.723339,5.006874,-2.8526914
215,1437142192299,-6.0501475,4.710592,-2.4462755
216,1437142192319,-6.5786676,4.5579615,-2.3253684
217,1437142192335,-6.6750345,4.4603977,-2.2756886
218,1437142192358,-6.7630215,4.4304705,-2.247557
219,1437142192379,-6.4900823,4.44723,-2.1859062
220,1437142192399,-6.588843,4.4418426,-1.8938135
221,1437142192419,-7.1909847,4.509479,-1.8243817
222,1437142192439,-7.4854717,4.7830167,-1.8363527
223,1437142192459,-7.4693108,5.225345,-2.0207062
224,1437142192479,-6.8982935,5.4091,-2.1110873
225,1437142192498,-6.4110737,5.4180784,-2.0775685
226,1437142192519,-6.397307,5.1996074,-1.910573
227,1437142192540,-6.8641763,5.103241,-1.8118122
228,1437142192564,-7.2268977,5.207389,-1.8183962
229,1437142192583,-7.1766195,5.643732,-1.9363106
230,1437142192601,-7.2969284,6.029797,-1.9015948
231,1437142192622,-7.587824,6.4218473,-1.8806454
232,1437142192638,-7.9966335,6.9120603,-1.9614497
233,1437142192656,-8.844181,7.848193,-2.180519
234,1437142192681,-8.403049,8.949526,-2.3169887
235,1437142192702,-8.810063,9.642648,-2.2062569
236,1437142192722,-11.058219,9.722255,-1.809418
237,1437142192739,-9.428965,9.791088,-1.2234371
238,1437142192760,-9.327211,10.115502,-0.6985083
239,1437142192831,-8.574833,10.570999,-0.3537433
240,1437142192833,-6.3123126,10.59554,-0.022744916
241,1437142192834,-4.6351743,10.010158,0.2873042
242,1437142192836,-5.5521536,9.209297,0.57400984
243,1437142192860,-6.615778,8.674192,0.7679402
244,1437142192882,-5.9998693,8.130111,0.9307459
245,1437142192896,-5.931635,7.450157,1.0384849
246,1437142192924,-6.4146647,7.107786,0.9367314
247,1437142192936,-6.0387754,6.7971387,0.9307459
248,1437142192959,-6.4864907,6.6241574,0.8810662
249,1437142192978,-6.171055,6.371569,0.88944596
250,1437142193000,-5.985504,6.066907,0.8086416
251,1437142193021,-5.932832,5.7143607,0.8595184
252,1437142193039,-5.9483943,5.2301335,0.973243
253,1437142193056,-6.0405707,4.684854,1.0672154
254,1437142193079,-5.841852,4.3047748,0.9792285
255,1437142193099,-5.925649,3.952827,0.8451532
256,1437142193119,-5.919065,3.6792896,0.6787562
257,1437142193139,-5.9543796,3.3836055,0.5201403
258,1437142193159,-6.2632318,3.2866404,0.3274071
259,1437142193179,-6.3063273,3.241749,0.2681506
260,1437142193200,-6.8306575,3.3399115,0.14844051
261,1437142193218,-7.382521,3.8732197,-0.17178397
262,1437142193239,-7.5082164,4.381389,-0.3321955
263,1437142193261,-7.368156,4.8404775,-0.5955577
264,1437142193279,-7.219715,5.108628,-0.8631097
265,1437142193297,-6.8246717,5.1960163,-1.0989386
266,1437142193320,-6.9467764,5.521628,-1.4508862
267,1437142193339,-7.8224554,6.053739,-1.7902644
268,1437142193359,-8.567651,6.497265,-2.0518308
269,1437142193379,-8.8777,6.811504,-2.2697031
270,1437142193400,-8.834604,6.899491,-2.3834279
271,1437142193420,-8.256405,6.879739,-2.3983915
272,1437142193440,-8.852561,6.9090676,-2.2852654
273,1437142193459,-9.168595,7.092224,-2.2541409
274,1437142193479,-9.2625675,7.043741,-2.1529858
275,1437142193550,-9.245809,7.0982094,-2.11827
276,1437142193551,-8.6257105,7.3507977,-2.2469583
277,1437142193552,-9.422979,7.805696,-2.5851393
278,1437142193561,-10.0508585,8.236053,-3.107674
279,1437142193577,-10.033501,8.769362,-3.7104142
280,1437142193619,-9.968858,9.029133,-4.296395
281,1437142193620,-8.592192,9.018958,-4.6680946
282,1437142193647,-7.2502413,8.817246,-5.1541176
283,1437142193669,-6.3165026,8.537724,-5.2642508
284,1437142193677,-7.3466077,7.8996687,-5.149928
285,1437142193700,-6.503849,6.7612257,-4.979341
286,1437142193719,-6.359598,6.1926026,-4.7722425
287,1437142193737,-6.681618,5.825093,-4.634576
288,1437142193760,-7.028179,5.6269727,-4.57113
289,1437142193779,-6.5385647,5.195418,-4.3754034
290,1437142193800,-6.3302693,4.7219644,-4.0467997
291,1437142193820,-6.133945,4.279037,-3.5613751
292,1437142193840,-6.290765,3.9803603,-3.1244333
293,1437142193860,-6.1985884,3.7834373,-2.7539306
294,1437142193877,-5.81372,3.679888,-2.3744495
295,1437142193900,-5.746084,3.5452142,-2.0266917
296,1437142193920,-5.647922,3.435081,-1.7669208
297,1437142193941,-5.5647235,3.2998085,-1.3856442
298,1437142193957,-6.3105173,3.2243912,-1.06123
299,1437142193978,-6.315904,3.3393128,-0.7870938
300,1437142193999,-6.114791,3.5990837,-0.54527944
301,1437142194019,-6.6588736,4.0372224,-0.45010993
302,1437142194039,-7.439383,4.1611223,-0.5129577
303,1437142194060,-7.1766195,4.2024226,-0.5931635
304,1437142194080,-6.841431,4.507085,-0.6667852
305,1437142194100,-7.492056,5.2002063,-1.0486604
306,1437142194120,-8.098986,5.7395,-1.3904326
307,1437142194140,-8.103176,6.149507,-1.5729905
308,1437142194160,-7.8302364,6.259042,-1.6340426
309,1437142194181,-7.905654,6.5230026,-1.809418
310,1437142194198,-8.6496525,6.3141084,-1.7603368
311,1437142194219,-9.578603,5.971139,-1.6298528
312,1437142194293,-9.457097,5.923255,-1.4413095
313,1437142194294,-9.646837,6.2195373,-1.3269863
314,1437142194297,-9.524733,6.815694,-1.2946646
315,1437142194298,-10.757148,7.2580223,-1.2964603
316,1437142194320,-12.037448,7.6129627,-0.92416185
317,1437142194344,-11.84232,8.297106,-0.3453636
318,1437142194358,-11.6986685,9.305065,0.29747957
319,1437142194390,-9.938332,9.774328,0.89662856
320,1437142194406,-5.898116,9.64145,1.4640543
321,1437142194420,-5.4803276,9.266758,1.8501194
322,1437142194439,-7.1939774,9.083601,2.0530279
323,1437142194458,-6.8121023,8.565256,2.1571758
324,1437142194481,-6.5511346,7.9786773,2.111686
325,1437142194501,-6.18961,7.2298903,2.0153193
326,1437142194521,-6.0621185,6.5625067,1.8124107
327,1437142194541,-6.8366427,5.9262476,1.6089035
328,1437142194559,-6.4416,5.037999,1.6041151
329,1437142194579,-5.831078,4.1252093,1.4700398
330,1437142194599,-5.4102974,3.3752258,1.2276269
331,1437142194619,-5.3199162,3.0148985,0.8074445
332,1437142194640,-5.6060233,3.003526,0.37948096
333,1437142194659,-5.4312468,3.0496144,0.038307227
334,1437142194679,-5.805939,3.2662897,-0.31483752
335,1437142194701,-6.0585275,3.4925418,-0.5979519
336,1437142194721,-6.281787,3.881001,-0.82480246
337,1437142194741,-7.0006456,4.1144357,-0.89184016
338,1437142194761,-7.307702,4.247314,-0.866701
339,1437142194781,-7.289147,4.3915644,-0.74878657
340,1437142194800,-7.050924,4.374805,-0.6817489
341,1437142194821,-7.101202,4.299388,-0.65541273
342,1437142194841,-7.247847,4.309563,-0.66139823
343,1437142194861,-8.054693,4.4921207,-0.7469909
344,1437142194881,-8.556877,4.857237,-0.7870938
345,1437142194900,-9.141062,5.2355204,-0.81522566
346,1437142194919,-9.585187,5.398925,-0.7529764
347,1437142194946,-9.906608,5.400122,-0.6865373
348,1437142195020,-10.394426,5.3743844,-0.62368953
349,1437142195021,-10.680533,5.45459,-0.7164649
350,1437142195022,-11.082161,5.625177,-0.8798691
351,1437142195023,-11.519103,5.831078,-1.0857705
352,1437142195039,-11.35091,6.0645127,-1.4969746
353,1437142195069,-11.155783,6.2632318,-1.9620483
354,1437142195080,-10.827777,6.673837,-2.3810337
355,1437142195101,-11.405378,7.482479,-2.9532478
356,1437142195120,-11.084556,8.051701,-3.639785
357,1437142195139,-7.9278,7.811083,-3.952827
358,1437142195161,-5.4049106,7.169437,-4.039018
359,1437142195179,-5.949591,6.5241995,-4.095282
360,1437142195203,-7.187992,6.1088057,-4.1653123
361,1437142195220,-7.7506294,5.9047,-4.309563
362,1437142195241,-8.343793,5.8639984,-4.325125
363,1437142195258,-8.121731,5.9663506,-4.36044
364,1437142195278,-8.045714,6.1477113,-4.261679
365,1437142195299,-7.191583,6.0651116,-4.0037036
366,1437142195318,-6.3781533,5.5922565,-3.5775359
367,1437142195338,-5.734113,5.0583496,-3.0071173
368,1437142195362,-5.4180784,4.3981485,-2.4492683
369,1437142195382,-5.189432,3.8893807,-1.9698294
370,1437142195405,-5.2582655,3.6092591,-1.6567876
371,1437142195419,-5.629367,3.436278,-1.3916297
372,1437142195442,-5.895123,3.4320881,-1.1731589
373,1437142195461,-5.9926867,3.558981,-1.1234791
374,1437142195478,-5.749077,3.8265328,-1.0899603
375,1437142195499,-6.0764837,4.1000705,-1.1941081
376,1437142195524,-6.3003416,4.2161894,-1.335366
377,1437142195544,-5.685032,4.2760444,-1.5873557
378,1437142195566,-4.9524064,4.325125,-1.7669208
379,1437142195579,-7.3831196,4.5633483,-1.6514006
380,1437142195601,-8.5060005,4.8937483,-1.5574282
381,1437142195619,-7.4166384,5.393538,-1.4047978
382,1437142195642,-7.5525093,6.0519433,-1.5765818
383,1437142195661,-7.28795,6.695385,-1.6603789
384,1437142195680,-8.42759,7.105392,-1.6861166
385,1437142195751,-9.444528,7.4016747,-1.5945383
386,1437142195752,-8.2516165,7.5429325,-1.5053543
387,1437142195753,-8.292317,7.752425,-1.4640543
388,1437142195761,-8.571242,7.7350674,-1.5472529
389,1437142195780,-8.432977,7.6345105,-1.4030021
390,1437142195801,-9.441534,8.100183,-1.1617863
391,1437142195819,-10.821193,8.944737,-0.8984242
392,1437142195852,-11.671135,9.533113,-0.26276365
393,1437142195862,-10.922348,10.242993,0.4249708
394,1437142195886,-8.907627,10.666168,0.9648633
395,1437142195905,-6.0519433,10.8385515,1.2258313
396,1437142195924,-4.0360255,10.350733,1.4562732
397,1437142195941,-6.384139,9.803658,1.5424645
398,1437142195962,-5.3725886,9.066842,1.5532384
399,1437142195982,-5.467758,8.041525,1.714847
400,1437142196002,-6.205771,7.253833,1.6364368
401,1437142196021,-6.4840965,6.7348895,1.5837644
402,1437142196042,-6.740875,6.482301,1.5107412
403,1437142196062,-6.4026937,6.1123967,1.429937
404,1437142196082,-5.7185507,5.647922,1.3545196
405,1437142196102,-5.2822075,4.979341,1.3060371
406,1437142196122,-5.33488,4.3077674,1.1510124
407,1437142196141,-5.355231,3.7098155,1.1162965
408,1437142196162,-5.0930657,3.3560722,1.1115081
409,1437142196182,-5.773019,3.3794158,1.0151415
410,1437142196199,-6.1279593,3.5817258,0.8984242
411,1437142196219,-6.4697313,3.8109705,0.7493851
412,1437142196240,-6.0986304,3.9731777,0.62847793
