id,attr_time,attr_x,attr_y,attr_z
1,1435993159405,-2.160767,9.400234,0.5650316
2,1435993159425,-2.1769278,9.395446,0.62129533
3,1435993159443,-2.1511903,9.382876,0.58897364
4,1435993159463,-2.1350293,9.31943,0.545878
5,1435993159483,-2.168548,9.306262,0.58657944
6,1435993159503,-2.1990743,9.32362,0.56682724
7,1435993159523,-2.1930888,9.3421755,0.5189432
8,1435993159630,-2.1655555,9.346365,0.5327099
9,1435993159634,-2.1769278,9.347562,0.55725044
10,1435993159635,-2.167351,9.344569,0.55725044
11,1435993159636,-2.1691468,9.356541,0.5422867
12,1435993159642,-2.1817162,9.369708,0.56563014
13,1435993159643,-2.1787236,9.399037,0.557849
14,1435993159668,-2.1613655,9.427169,0.5638345
15,1435993159683,-2.1703439,9.378687,0.56323594
16,1435993159703,-2.156577,9.368511,0.5398925
17,1435993159728,-2.1517887,9.359533,0.52073884
18,1435993159743,-2.1547816,9.383475,0.623091
19,1435993159763,-2.1918917,9.400234,0.43275195
20,1435993159785,-2.1416135,9.376292,0.5021838
21,1435993159804,-2.0380642,9.383475,0.6440403
22,1435993159825,-2.1278467,9.445126,0.65780693
23,1435993159845,-2.203264,9.414599,0.54049104
24,1435993159865,-2.1535845,9.394249,0.44113165
25,1435993159885,-2.071583,9.41879,0.5386954
26,1435993159905,-2.0620062,9.457097,0.6374562
27,1435993159925,-2.0973208,9.4295635,0.5626374
28,1435993159945,-2.107496,9.400833,0.55006784
29,1435993159965,-2.1493945,9.370307,0.5907693
30,1435993159982,-2.178125,9.396643,0.60932434
31,1435993160040,-2.1972785,9.41041,0.62249243
32,1435993160041,-2.1990743,9.396643,0.57041854
33,1435993160049,-2.2409728,9.419388,0.6404489
34,1435993160065,-2.231396,9.351752,0.5847838
35,1435993160085,-2.2104468,9.354745,0.5506664
36,1435993160105,-2.1529858,9.40203,0.59974754
37,1435993160125,-2.1936872,9.397242,0.6745663
38,1435993160145,-2.2092497,9.382876,0.65421563
39,1435993160164,-2.2092497,9.387665,0.6218939
40,1435993160184,-2.2038627,9.361927,0.6290765
41,1435993160204,-2.212841,9.370906,0.62847793
42,1435993160226,-2.1775265,9.341577,0.62249243
43,1435993160245,-2.1823149,9.369708,0.664391
44,1435993160265,-2.2014685,9.406818,0.6572084
45,1435993160284,-2.2068555,9.412804,0.62249243
46,1435993160311,-2.1787236,9.398438,0.6314707
47,1435993160323,-2.1883004,9.3733,0.6344634
48,1435993160369,-2.1745336,9.364322,0.6332663
49,1435993160370,-2.1709423,9.36492,0.6859388
50,1435993160389,-2.1631613,9.3738985,0.5662287
51,1435993160404,-2.1080947,9.357738,0.56922144
52,1435993160429,-2.0727801,9.399037,0.6799533
53,1435993160443,-2.1039047,9.431359,0.7410054
54,1435993160463,-2.1212628,9.407417,0.5614403
55,1435993160484,-2.1601684,9.378687,0.5446809
56,1435993160505,-2.083554,9.398438,0.6099229
57,1435993160524,-2.0626047,9.383475,0.6374562
58,1435993160545,-2.0560207,9.428367,0.63087213
59,1435993160563,-2.0967221,9.433753,0.63206923
60,1435993160588,-2.11827,9.402629,0.6434417
61,1435993160604,-2.0973208,9.394249,0.61650693
62,1435993160625,-2.1158757,9.392453,0.6123171
63,1435993160643,-2.1140802,9.403826,0.65062433
64,1435993160666,-2.1260512,9.423578,0.63087213
65,1435993160686,-2.1080947,9.419388,0.64703304
66,1435993160706,-2.119467,9.40203,0.6254852
67,1435993160727,-2.0961237,9.396045,0.6398504
68,1435993160744,-2.124854,9.415198,0.6691794
69,1435993160766,-2.1721394,9.409213,0.6584055
70,1435993160784,-2.1894975,9.405023,0.6512229
71,1435993160806,-2.208651,9.3733,0.65660983
72,1435993160826,-2.2002714,9.347562,0.60932434
73,1435993160843,-2.1984756,9.376292,0.6440403
74,1435993160865,-2.2050598,9.4062195,0.6805518
75,1435993160884,-2.1841104,9.412804,0.62368953
76,1435993160908,-2.1799207,9.4295635,0.6123171
77,1435993160929,-2.1637597,9.406818,0.6338649
78,1435993160944,-2.1458032,9.390657,0.6835446
79,1435993160966,-2.1290438,9.36911,0.6512229
80,1435993160983,-2.1499932,9.371504,0.74998367
81,1435993161003,-2.1631613,9.345766,0.5267244
82,1435993161023,-2.1386206,9.31943,0.5650316
83,1435993161045,-2.1691468,9.39365,0.6871359
84,1435993161077,-2.1589713,9.432556,0.7344214
85,1435993161083,-2.1703439,9.414599,0.59256494
86,1435993161129,-2.2134395,9.399636,0.57400984
87,1435993161130,-2.1452048,9.379884,0.6368576
88,1435993161148,-2.1416135,9.370307,0.6584055
89,1435993161164,-2.1278467,9.376891,0.6464345
90,1435993161184,-2.134431,9.387665,0.6572084
91,1435993161204,-2.1601684,9.377489,0.6667852
92,1435993161226,-2.1511903,9.384672,0.65900403
93,1435993161243,-2.1571758,9.426571,0.66618663
94,1435993161264,-2.1649568,9.423578,0.6548142
95,1435993161286,-2.154183,9.43914,0.66738373
96,1435993161304,-2.1499932,9.411008,0.6572084
97,1435993161325,-2.1505916,9.399037,0.6536171
98,1435993161344,-2.1440077,9.376292,0.6727707
99,1435993161364,-2.166154,9.3661175,0.6919243
100,1435993161387,-2.172738,9.381081,0.6560113
101,1435993161407,-2.1841104,9.379884,0.599149
102,1435993161427,-2.1811178,9.403227,0.60932434
103,1435993161447,-2.1829133,9.400234,0.6536171
104,1435993161467,-2.1613655,9.405622,0.6194997
105,1435993161487,-2.156577,9.394848,0.66379243
106,1435993161507,-2.1871033,9.428965,0.6721721
107,1435993161524,-2.2481554,9.431359,0.6757634
108,1435993161547,-2.2541409,9.417592,0.6769605
109,1435993161567,-2.2427685,9.3978405,0.6655881
110,1435993161586,-2.2421699,9.385271,0.6560113
111,1435993161604,-2.224812,9.36492,0.7517793
112,1435993161626,-2.247557,9.357738,0.5638345
113,1435993161645,-2.2559366,9.367314,0.65301853
114,1435993161668,-2.168548,9.357738,0.60573304
115,1435993161689,-2.1990743,9.408015,0.7918822
116,1435993161708,-2.2170308,9.355942,0.6302736
117,1435993161727,-2.260725,9.352949,0.6015432
118,1435993161746,-2.2469583,9.403227,0.6476316
119,1435993161765,-2.271499,9.380483,0.7284359
120,1435993161785,-2.331354,9.353547,0.6919243
121,1435993161807,-2.3540988,9.360131,0.7152678
122,1435993161852,-2.4013844,9.301474,0.7906851
123,1435993161853,-2.4558525,9.270349,0.8086416
124,1435993161872,-2.492364,9.239224,0.8218097
125,1435993161885,-2.544438,9.242816,0.801459
126,1435993161905,-2.5677812,9.239224,0.83258367
127,1435993161924,-2.5809495,9.219472,0.75716627
128,1435993161944,-2.556409,9.207501,0.7493851
129,1435993161967,-2.5192988,9.2308445,0.78769237
130,1435993161986,-2.5384524,9.305065,0.8319851
131,1435993162004,-2.510919,9.306861,0.8343793
132,1435993162025,-2.5007436,9.301474,0.80445176
133,1435993162047,-2.5151088,9.281721,0.82121116
134,1435993162065,-2.5079262,9.276335,0.81283146
135,1435993162087,-2.504335,9.26197,0.80086046
136,1435993162107,-2.473809,9.279925,0.8451532
137,1435993162128,-2.4720132,9.256582,0.8170213
138,1435993162147,-2.5103204,9.242217,0.79846627
139,1435993162167,-2.4995465,9.267955,0.8074445
140,1435993162187,-2.5115175,9.239224,0.7799112
141,1435993162208,-2.4797945,9.229049,0.7422025
142,1435993162227,-2.5037365,9.223063,0.7870938
143,1435993162247,-2.5157075,9.248202,0.6955156
144,1435993162265,-2.4851813,9.26197,0.66259533
145,1435993162284,-2.3654714,9.220071,0.6793547
146,1435993162304,-2.4229321,9.258977,0.80684596
147,1435993162324,-2.4498668,9.270349,0.7846996
148,1435993162344,-2.4534583,9.229648,0.6422446
149,1435993162365,-2.4361002,9.207501,0.7529764
150,1435993162384,-2.4510639,9.244612,0.8002619
151,1435993162404,-2.4720132,9.263166,0.7517793
152,1435993162424,-2.457648,9.276335,0.7649474
153,1435993162444,-2.4953568,9.281123,0.7739257
154,1435993162464,-2.4947581,9.270947,0.7493851
155,1435993162486,-2.4851813,9.24521,0.7445967
156,1435993162513,-2.4809916,9.228451,0.7110779
157,1435993162580,-2.521693,9.244013,0.8122329
158,1435993162581,-2.5378537,9.273342,0.712275
159,1435993162582,-2.5318682,9.308656,0.65900403
160,1435993162614,-2.4887726,9.376891,0.7074866
161,1435993162635,-2.4839842,9.334992,0.7146692
162,1435993162636,-2.4702177,9.303269,0.6853402
163,1435993162645,-2.486977,9.264363,0.694917
164,1435993162665,-2.5049336,9.230247,0.65301853
165,1435993162685,-2.498948,9.247604,0.64463884
166,1435993162705,-2.4744074,9.241618,0.6123171
167,1435993162739,-2.4504654,9.252991,0.60932434
168,1435993162747,-2.4498668,9.255983,0.58657944
169,1435993162765,-2.463035,9.294889,0.5542577
170,1435993162788,-2.4516625,9.308058,0.5315128
171,1435993162805,-2.3942018,9.320627,0.53091425
172,1435993162828,-2.3355439,9.357139,0.52612585
173,1435993162848,-2.3068132,9.379285,0.5746084
174,1435993162867,-2.3139958,9.36911,0.41120413
175,1435993162888,-2.3277626,9.425972,0.43754035
176,1435993162908,-2.2535424,9.415796,0.3597288
177,1435993162928,-2.2296004,9.504382,0.62847793
178,1435993162948,-2.1877017,9.537302,0.58777654
179,1435993162967,-2.2278047,9.48044,0.43634325
180,1435993162988,-2.2134395,9.440337,0.41240123
181,1435993163005,-2.1452048,9.415796,0.46208093
182,1435993163025,-2.131438,9.440936,0.46447513
183,1435993163048,-2.0913353,9.420585,0.45130703
184,1435993163068,-2.0979192,9.40203,0.45669398
185,1435993163088,-2.135628,9.378088,0.47405192
186,1435993163109,-2.168548,9.394249,0.46327803
187,1435993163127,-2.1865046,9.408614,0.46986207
188,1435993163147,-2.2212207,9.43495,0.4237737
189,1435993163166,-2.2331917,9.43495,0.4914099
190,1435993163188,-2.256535,9.448717,0.43993455
191,1435993163209,-2.231396,9.444528,0.43394905
192,1435993163228,-2.2361844,9.417592,0.46866497
193,1435993163249,-2.2541409,9.367314,0.5303157
194,1435993163266,-2.255338,9.337985,0.53450555
195,1435993163294,-2.2744915,9.308656,0.53211135
196,1435993163309,-2.2972364,9.308058,0.54647654
197,1435993163325,-2.3265655,9.316438,0.54168814
198,1435993163345,-2.3469162,9.35235,0.5446809
199,1435993163367,-2.3774424,9.363124,0.5267244
200,1435993163387,-2.3720553,9.362526,0.5243302
201,1435993163406,-2.360683,9.356541,0.49679685
202,1435993163425,-2.3493104,9.352949,0.51235914
203,1435993163446,-2.3331497,9.35235,0.51954174
204,1435993163469,-2.3319526,9.384672,0.6344634
205,1435993163489,-2.3175871,9.385869,0.41240123
206,1435993163507,-2.2786815,9.337985,0.5057751
207,1435993163529,-2.1775265,9.303269,0.55964464
208,1435993163549,-2.1625626,9.3499565,0.7020996
209,1435993163568,-2.1625626,9.331401,0.57041854
210,1435993163587,-2.212841,9.329007,0.4842273
211,1435993163611,-2.1709423,9.400833,0.4830302
212,1435993163627,-2.1206641,9.424775,0.5943606
213,1435993163646,-2.1045034,9.419987,0.55844754
214,1435993163667,-2.1045034,9.407417,0.5386954
215,1435993163689,-2.1152773,9.3499565,0.5614403
216,1435993163709,-2.1452048,9.388862,0.53929394
217,1435993163729,-2.1733365,9.4457245,0.52852005
218,1435993163749,-2.1523874,9.461287,0.54288524
219,1435993163767,-2.1493945,9.472659,0.5189432
220,1435993163788,-2.1308396,9.431359,0.56203884
221,1435993163808,-2.144606,9.36492,0.51116204
222,1435993163829,-2.1308396,9.332599,0.52073884
223,1435993163849,-2.179322,9.349358,0.5979519
224,1435993163869,-2.2499511,9.390657,0.60693014
225,1435993163887,-2.2559366,9.381081,0.60094464
226,1435993163908,-2.3026235,9.334992,0.6817489
227,1435993163933,-2.3175871,9.318831,0.7104794
228,1435993164006,-2.321777,9.354745,0.7200562
229,1435993164007,-2.367267,9.460688,0.9331401
230,1435993164008,-2.3900118,9.556456,0.94810385
231,1435993164009,-2.4187422,9.539697,0.8535329
232,1435993164026,-2.36188,9.4457245,0.878672
233,1435993164046,-2.1984756,9.378687,1.0582372
234,1435993164066,-2.0775685,9.340978,1.210269
235,1435993164086,-2.046444,9.280524,1.347337
236,1435993164107,-2.0829554,9.169792,1.1145009
237,1435993164129,-2.0847511,9.078813,0.98581254
238,1435993164147,-1.9231426,9.0016,1.0348936
239,1435993164167,-1.8806454,9.033921,1.0229226
240,1435993164187,-1.8106151,9.0842,0.7457938
241,1435993164209,-1.7591397,9.21229,0.6003461
242,1435993164229,-1.6466122,9.431957,0.54767364
243,1435993164249,-1.5376761,9.643246,0.55246204
244,1435993164269,-1.412579,9.719262,0.4794389
245,1435993164287,-1.3371617,9.662998,0.3854665
246,1435993164309,-1.4101849,9.574412,0.35434186
247,1435993164329,-1.5053543,9.600749,0.29927522
248,1435993165747,-1.5777789,9.661202,0.2765303
249,1435993165748,-1.5807717,9.642648,0.32920274
250,1435993165749,-1.5945383,9.560646,0.3238158
251,1435993165750,-1.608305,9.473856,0.22924481
252,1435993165751,-1.578976,9.467272,0.24241292
253,1435993165752,-1.5939398,9.448717,0.33997664
254,1435993165753,-1.6597804,9.36492,0.45789108
255,1435993165754,-1.809418,9.314043,0.46806642
256,1435993165755,-2.0632033,9.294889,0.56323594
257,1435993165756,-2.420538,9.264962,0.66139823
258,1435993165757,-2.8018146,9.073426,0.80325466
259,1435993165758,-3.247136,8.69993,0.74878657
260,1435993165759,-3.8193502,8.2995,0.1388637
261,1435993165760,-4.0521865,8.365341,-0.2100912
262,1435993165761,-3.9791632,8.7951,-0.37828386
263,1435993165762,-3.5972881,9.202114,-0.39683893
264,1435993165763,-3.180697,9.57142,-0.25438392
265,1435993165764,-2.8933928,9.867104,0.19273324
266,1435993165765,-2.6659436,9.97185,0.6242881
267,1435993165766,-2.5079262,9.627085,0.4225766
268,1435993165767,-2.3289597,9.042301,0.02633622
269,1435993165768,-2.0614076,8.588001,-0.260968
270,1435993165769,-2.1284454,8.627506,-0.40043023
271,1435993165770,-2.517503,9.184756,-0.777517
272,1435993165771,-2.6150668,9.434352,-1.1061212
273,1435993165772,-2.634819,9.526528,-0.99179804
274,1435993165773,-2.7006595,9.424775,-0.7990648
275,1435993165774,-2.8443117,9.108741,-0.92655605
276,1435993165775,-2.908955,8.861539,-1.0552444
277,1435993165776,-2.8491,8.87351,-1.115698
278,1435993165777,-2.783858,9.073426,-1.0696096
279,1435993165778,-2.846706,9.325416,-1.0079589
280,1435993165779,-2.873042,9.560047,-1.0235212
281,1435993165780,-2.9712043,9.734824,-1.050456
282,1435993165781,-3.1124623,10.136452,-1.1085154
283,1435993165782,-3.1974564,10.406398,-1.0145429
284,1435993165783,-3.2381577,10.536881,-1.0121487
285,1435993165784,-3.2154129,10.680533,-1.0899603
286,1435993165785,-3.1483753,10.8864355,-1.002572
287,1435993165786,-3.177704,11.137228,-0.84455466
288,1435993165787,-3.433884,11.949461,-1.039682
289,1435993165788,-3.5763388,12.823943,-0.16759412
290,1435993165789,-3.5392287,13.317747,0.10414778
291,1435993165790,-2.8473043,11.812991,-1.0779893
292,1435993165791,-0.866701,10.224439,-2.5420437
293,1435993165792,1.3012487,8.464102,-1.714847
294,1435993165793,1.6514006,7.8068933,-1.0049661
295,1435993165794,2.332551,7.9313917,-0.682946
296,1435993165795,2.3888147,8.458116,-0.046686932
297,1435993165796,1.4694413,8.86513,0.8822633
298,1435993165797,0.40701428,8.951322,1.0271125
299,1435993165798,-0.5243302,8.732851,0.60932434
300,1435993165799,-0.7380127,8.2833395,0.047285482
301,1435993165800,-0.7206547,7.86615,-0.34596214
302,1435993165801,-0.78290397,7.6249337,-0.32321724
303,1435993165802,-0.81163436,7.756615,0.22505496
304,1435993165803,-0.6967127,8.243237,0.85413146
305,1435993165804,-0.55605334,9.028535,1.1168951
306,1435993165805,-0.39384618,9.379884,1.2306197
307,1435993165806,-0.14963761,9.503783,1.2761095
308,1435993165807,-0.11552023,9.379285,1.1282675
309,1435993165808,-0.4309563,9.130288,0.9768343
310,1435993165809,-0.82899237,8.959103,1.0127473
311,1435993165810,-1.1528081,8.858546,1.049259
312,1435993165811,-1.3802572,8.925584,1.0163386
313,1435993165812,-1.4706384,9.196129,1.1282675
314,1435993165813,-1.6328455,9.557653,1.3802572
315,1435993165814,-1.846528,9.669582,1.4359225
316,1435993165815,-2.2224178,9.713276,1.3640964
317,1435993165816,-2.429516,9.706094,1.3150153
318,1435993165817,-2.463035,9.77792,0.92296475
319,1435993165818,-2.058415,10.001179,0.5638345
320,1435993165819,-1.5634137,11.03727,0.45968673
321,1435993165820,-1.899799,13.714586,0.06344634
322,1435993165827,-2.3810337,17.126923,0.66139823
323,1435993165847,-0.89603,19.528307,-0.9068039
324,1435993165867,-0.3393781,14.08449,-1.4622587
325,1435993165887,-1.3958195,8.826823,0.16519992
326,1435993165907,-1.963844,5.303157,0.5931635
327,1435993165927,-1.1671734,2.9376855,-1.775899
328,1435993165947,-0.260968,2.7898436,-4.2185836
329,1435993165967,-0.18195933,4.462792,-4.7405195
330,1435993165987,-0.18555063,6.736685,-3.550601
331,1435993166011,-0.480636,9.425972,-1.5310919
332,1435993166028,-1.6136919,12.155362,0.48123455
333,1435993166048,-0.19752164,15.521609,-0.0023942017
334,1435993166071,1.1845313,13.499107,-2.0308816
335,1435993166089,-0.38726214,10.277111,-1.5478514
336,1435993166110,-1.270124,7.780557,-0.05267244
337,1435993166129,-1.6424223,6.903082,0.61052144
338,1435993166150,-2.2625206,7.191583,-0.08259996
339,1435993166171,-2.3529017,7.716512,-0.5177461
340,1435993166190,-2.297835,8.079832,-0.57879823
341,1435993166211,-2.2266076,8.572439,-0.47285482
342,1435993166231,-2.2655134,9.018958,-0.49559975
343,1435993166251,-2.4774003,9.223063,-0.641646
344,1435993166271,-2.7605145,9.058462,-0.62009823
345,1435993166291,-2.9867666,9.110536,-0.5141548
346,1435993166311,-3.4596214,9.6767645,-0.6015432
347,1435993166364,-3.9258924,10.468048,-0.39564183
348,1435993166368,-4.192846,11.475409,0.0053869537
349,1435993166369,-4.383185,12.836513,0.1436521
350,1435993166388,-4.811148,13.592482,0.054468088
351,1435993166410,-5.2379146,14.346057,0.6135142
352,1435993166429,-4.980538,14.859612,0.7433996
353,1435993166448,-3.2860417,13.391369,0.26635495
354,1435993166469,-0.9780314,11.034277,-1.1384429
355,1435993166488,1.389834,8.933365,-2.0602105
356,1435993166511,3.3943794,7.2490444,-2.4343045
357,1435993166528,4.187459,6.1519012,-2.1140802
358,1435993166552,3.5194764,5.8903346,-0.7906851
359,1435993166569,1.5095441,7.0263834,0.5351041
360,1435993166592,-0.6865373,8.620922,0.98461545
361,1435993166612,-1.2808979,9.029133,1.0313023
362,1435993166628,-1.1791444,9.15842,-0.22984336
363,1435993166649,-0.8367735,9.2308445,-1.311424
364,1435993166669,-0.94810385,9.099762,-1.3317747
365,1435993166691,-1.1486182,8.858546,-0.26994625
366,1435993166745,-1.4748282,8.692149,0.92176765
367,1435993166746,-1.5412674,8.409634,1.8543092
368,1435993166750,-1.5867572,7.900267,2.0374656
369,1435993166769,-1.7830818,7.526173,1.6950948
370,1435993166789,-1.9835961,7.3388267,1.5101427
371,1435993166809,-1.7447745,7.6345105,1.1043255
372,1435993166829,-1.5059528,7.9487495,1.0043676
373,1435993166849,-1.2000936,8.406042,1.30484
374,1435993166869,-1.1007342,8.92738,1.5903485
375,1435993166889,-1.7555484,9.200917,2.1529858
376,1435993166909,-1.8620903,9.345168,2.8413188
377,1435993166929,-2.778471,9.587581,2.408567
378,1435993166949,-3.6248214,9.65821,2.373851
379,1435993166969,-4.220379,9.640852,1.8303672
380,1435993166989,-4.219182,9.6288805,1.4239515
381,1435993167013,-3.5248635,10.241198,1.2623428
382,1435993167029,-2.967613,11.967417,2.4073699
383,1435993167063,-3.590704,12.655151,3.2381577
384,1435993167073,-4.301782,12.608464,1.6310499
385,1435993167092,-4.380192,11.614272,-0.7380127
386,1435993167109,-3.3746274,10.108918,-1.3347675
387,1435993167129,-2.259528,8.706514,-1.079785
388,1435993167149,-1.6849195,7.709928,-1.311424
389,1435993167169,-1.4449008,7.1275387,-2.3301568
390,1435993167197,-1.745373,7.503428,-2.2984335
391,1435993167209,-2.0799627,8.790312,-1.2683283
392,1435993167233,-1.6831238,10.593145,-0.11312603
393,1435993167249,-1.0869676,11.651981,1.2497733
394,1435993167270,-0.516549,10.348338,1.0995371
395,1435993167288,-0.10414778,9.083003,0.81043726
396,1435993167313,-0.130484,7.949947,0.8631097
397,1435993167333,-0.5021838,7.244256,1.1192893
398,1435993167353,-1.4951789,7.2286935,0.8367735
399,1435993167372,-2.5157075,7.6147585,0.32202014
400,1435993167390,-3.256713,7.94037,0.3681085
401,1435993167410,-3.7337575,8.098388,0.38726214
402,1435993167433,-3.822343,8.160637,0.20350714
403,1435993167454,-3.594894,7.9852614,0.1400608
404,1435993167470,-3.3237505,7.877522,0.16101007
405,1435993167494,-3.221997,8.076839,0.32920274
406,1435993167510,-3.198055,8.562862,0.78050977
407,1435993167531,-3.2393548,9.57561,1.1755531
408,1435993167553,-3.481768,10.85531,1.3329718
409,1435993167573,-3.8911762,12.334329,1.411382
410,1435993167593,-4.1371803,13.265673,1.2318168
411,1435993167613,-4.4981065,12.8772135,1.1695676
412,1435993167633,-4.748899,13.04002,0.7793127
413,1435993167653,-4.8500543,14.140754,0.64823014
414,1435993167674,-3.9378633,14.9063,0.015562311
415,1435993167691,-0.97144735,11.919533,-1.7238252
