id,attr_time,attr_x,attr_y,attr_z
1,1435993159428,-2.891597,9.324817,0.04249708
2,1435993159429,-2.9119477,9.337985,0.023942016
3,1435993159445,-2.89459,9.332,0.04129998
4,1435993159464,-2.8592753,9.305663,0.029927522
5,1435993159473,-2.823961,9.351752,0.007182605
6,1435993159492,-2.806603,9.368511,0.0035913025
7,1435993159515,-2.7736826,9.3822775,0.0017956513
8,1435993159533,-2.7449522,9.3738985,-0.017357962
9,1435993159555,-2.7275944,9.346365,0.027533319
10,1435993159572,-2.7461493,9.385271,-0.01436521
11,1435993159593,-2.735974,9.357139,-0.025737667
12,1435993159613,-2.7629087,9.328408,-0.030526072
13,1435993159639,-2.8293478,9.431359,-0.074818805
14,1435993159653,-2.8772318,9.434352,-0.09876082
15,1435993159673,-2.9221232,9.391854,-0.06464344
16,1435993159692,-2.8975825,9.34397,-0.04070143
17,1435993159716,-2.8898015,9.333197,-0.005985504
18,1435993159736,-2.8808231,9.299678,0.048482586
19,1435993159756,-2.8329391,9.317635,0.08140286
20,1435993159776,-2.7688942,9.3499565,0.09756372
21,1435993159795,-2.6916811,9.34397,0.109534726
22,1435993159813,-2.6473885,9.405023,0.12210429
23,1435993159833,-2.6210523,9.365519,0.16400282
24,1435993159856,-2.633622,9.385869,0.12988544
25,1435993159873,-2.6839,9.3733,0.12928689
26,1435993159938,-2.7383683,9.378088,0.12988544
27,1435993159939,-2.771887,9.342773,0.16220717
28,1435993159940,-2.7670987,9.291897,0.14844051
29,1435993159966,-2.8018146,9.308656,0.1376666
30,1435993159973,-2.80361,9.328408,0.10534488
31,1435993160013,-2.8167782,9.353547,0.10534488
32,1435993160014,-2.8042088,9.352949,0.10654198
33,1435993160036,-2.794632,9.347562,0.11252748
34,1435993160055,-2.7922378,9.363723,0.12090719
35,1435993160073,-2.778471,9.339182,0.11671733
36,1435993160093,-2.7629087,9.350554,0.11492168
37,1435993160116,-2.7659016,9.354745,0.095169514
38,1435993160133,-2.7964275,9.355942,0.08619126
39,1435993160154,-2.8119898,9.367912,0.06464344
40,1435993160173,-2.8431146,9.333197,0.06584055
41,1435993160194,-2.855684,9.314043,0.078410104
42,1435993160216,-2.8431146,9.314043,0.05686229
43,1435993160236,-2.846706,9.315839,0.05865794
44,1435993160256,-2.8670566,9.361927,0.02932897
45,1435993160276,-2.8754363,9.382876,0.011372458
46,1435993160294,-2.8790276,9.363124,0.05746084
47,1435993160313,-2.8604724,9.3499565,0.077213004
48,1435993160333,-2.8060043,9.336788,0.089782566
49,1435993160355,-2.747945,9.345168,0.108337626
50,1435993160374,-2.693477,9.348161,0.11492168
51,1435993160425,-2.6390088,9.36911,0.11133038
52,1435993160426,-2.6132712,9.414599,0.061650693
53,1435993160442,-2.618658,9.449914,-0.0023942017
54,1435993160468,-2.6420016,9.405023,-0.0005985504
55,1435993160473,-2.6952724,9.414001,-0.007182605
56,1435993160493,-2.7401638,9.376292,-0.008978256
57,1435993160520,-2.7880478,9.39365,-0.018555064
58,1435993160539,-2.830545,9.3738985,-0.0017956513
59,1435993160556,-2.8287494,9.357738,-0.010773907
60,1435993160575,-2.8281507,9.324817,-0.013766659
61,1435993160597,-2.7976246,9.300277,-0.020350715
62,1435993160614,-2.8137856,9.333796,-0.05207389
63,1435993160633,-2.8179753,9.342773,-0.05746084
64,1435993160656,-2.8532898,9.356541,-0.108337626
65,1435993160674,-2.9053638,9.361927,-0.09636662
66,1435993160693,-2.9460652,9.333197,-0.11611878
67,1435993160715,-2.96881,9.317635,-0.14544775
68,1435993160738,-2.973,9.292496,-0.1412579
69,1435993160758,-2.9400797,9.324219,-0.15203181
70,1435993160778,-2.896984,9.31943,-0.14784196
71,1435993160796,-2.8724434,9.32362,-0.15263036
72,1435993160814,-2.8646624,9.355942,-0.12689269
73,1435993160835,-2.831742,9.339182,-0.11372458
74,1435993160857,-2.825158,9.300277,-0.11971009
75,1435993160875,-2.8790276,9.356541,-0.11611878
76,1435993160894,-2.8975825,9.384073,-0.10534488
77,1435993160946,-2.8766334,9.367912,-0.10474633
78,1435993160947,-2.8449101,9.315839,-0.0712275
79,1435993160957,-2.8119898,9.321824,-0.054468088
80,1435993160984,-2.7766755,9.326612,-0.037110128
81,1435993160996,-2.7341783,9.357738,-0.060453594
82,1435993161016,-2.698864,9.387066,-0.078410104
83,1435993161036,-2.718616,9.415796,-0.10295067
84,1435993161054,-2.7257986,9.417592,-0.108936176
85,1435993161076,-2.7575219,9.357139,-0.08319851
86,1435993161095,-2.7874494,9.381081,-0.0724246
87,1435993161116,-2.8078,9.351153,-0.04189853
88,1435993161137,-2.8323407,9.346964,-0.02633622
89,1435993161154,-2.80361,9.303867,-0.02932897
90,1435993161176,-2.8083985,9.299678,-0.024540568
91,1435993161194,-2.8263552,9.336189,-0.035913024
92,1435993161218,-2.8443117,9.3733,-0.05207389
93,1435993161242,-2.8485014,9.321824,-0.06823475
94,1435993161259,-2.8844144,9.376891,-0.044292733
95,1435993161276,-2.8939912,9.3978405,-0.054468088
96,1435993161296,-2.891597,9.385869,-0.047285482
97,1435993161314,-2.8760347,9.409811,-0.01436521
98,1435993161335,-2.842516,9.41879,-0.030526072
99,1435993161355,-2.835932,9.46009,-0.05207389
100,1435993161374,-2.8580782,9.479243,-0.06823475
101,1435993161427,-2.842516,9.472659,-0.020949265
102,1435993161428,-2.831742,9.437943,0.045489833
103,1435993161449,-2.843713,9.415198,0.07062895
104,1435993161458,-2.8209682,9.32781,0.12928689
105,1435993161475,-2.7862523,9.269751,0.19093758
106,1435993161501,-2.7275944,9.270947,0.22625206
107,1435993161516,-2.586935,9.301474,0.29807812
108,1435993161537,-2.3750482,9.290101,0.34237084
109,1435993161556,-2.1158757,9.334992,0.41359833
110,1435993161575,-1.8561049,9.41041,0.46327803
111,1435993161596,-1.5969325,9.485827,0.4866215
112,1435993161619,-1.3742718,9.558251,0.5746084
113,1435993161635,-1.1623849,9.595362,0.6206968
114,1435993161666,-1.0181342,9.599552,0.6691794
115,1435993161674,-0.8846575,9.637859,0.7062895
116,1435993161694,-0.7218518,9.673772,0.7200562
117,1435993161715,-0.6841431,9.68694,0.7134721
118,1435993161735,-0.7009025,9.753978,0.6895301
119,1435993161754,-0.741604,9.7719345,0.66259533
120,1435993161775,-0.7493851,9.7479925,0.64583594
121,1435993161795,-0.6841431,9.760562,0.60932434
122,1435993161817,-0.61650693,9.770737,0.6015432
123,1435993161836,-0.58777654,9.807847,0.5943606
124,1435993161855,-0.61411273,9.787497,0.58538234
125,1435993161903,-0.55485624,9.783307,0.57760113
126,1435993161904,-0.4381389,9.806051,0.61890113
127,1435993161917,-0.39205053,9.808446,0.6464345
128,1435993161938,-0.3369839,9.8042555,0.6907272
129,1435993161957,-0.3357868,9.788095,0.6973112
130,1435993161977,-0.36152446,9.759365,0.6955156
131,1435993161995,-0.35553896,9.766547,0.7140707
132,1435993162017,-0.40581718,9.731832,0.712275
133,1435993162035,-0.45489833,9.709685,0.7266402
134,1435993162055,-0.51834464,9.68275,0.7044938
135,1435993162076,-0.53570265,9.700109,0.7015011
136,1435993162095,-0.52492875,9.646837,0.6865373
137,1435993162118,-0.521936,9.733627,0.66259533
138,1435993162138,-0.521936,9.803658,0.62488663
139,1435993162158,-0.50637364,9.791686,0.5907693
140,1435993162179,-0.5434838,9.81503,0.5805939
141,1435993162198,-0.5746084,9.824607,0.5734113
142,1435993162218,-0.6434417,9.807847,0.57400984
143,1435993162238,-0.7188591,9.765948,0.53450555
144,1435993162258,-0.7428011,9.757569,0.51595044
145,1435993162279,-0.7541735,9.785701,0.5129577
146,1435993162299,-0.78649527,9.809045,0.48243165
147,1435993162320,-0.8888474,9.742006,0.480636
148,1435993162336,-1.0313023,9.747394,0.4429273
149,1435993162356,-1.1785458,9.716867,0.42317516
150,1435993162401,-1.2910733,9.73662,0.39145198
151,1435993162402,-1.4251486,9.68275,0.37349546
152,1435993162424,-1.4975731,9.620501,0.37110126
153,1435993162449,-1.620276,9.58818,0.36272156
154,1435993162456,-1.7645266,9.546879,0.338181
155,1435993162475,-1.8369513,9.524135,0.33518824
156,1435993162495,-1.9542671,9.519346,0.32321724
157,1435993162516,-2.0697873,9.498995,0.31423897
158,1435993162536,-2.2272062,9.458294,0.29328972
159,1435993162555,-2.3768437,9.391854,0.29867667
160,1435993162575,-2.510919,9.344569,0.30047232
161,1435993162596,-2.6557682,9.288305,0.31603462
162,1435993162619,-2.8060043,9.205706,0.31184477
163,1435993162636,-2.9119477,9.128492,0.31124622
164,1435993162655,-3.0556,9.113529,0.2825158
165,1435993162676,-3.1878796,9.147048,0.25318682
166,1435993162701,-3.3141737,9.172187,0.2112883
167,1435993162743,-3.3614593,9.146449,0.1604115
168,1435993162744,-3.4542346,9.167996,0.1364695
169,1435993162756,-3.591901,9.236232,0.062249243
170,1435993162776,-3.7122097,9.224859,0.040102877
171,1435993162817,-3.8726213,9.145252,0.049679685
172,1435993162818,-3.9456444,8.998607,0.065242
173,1435993162924,-3.9983168,8.925584,0.110133275
174,1435993162959,-4.0467997,8.856153,0.17058687
175,1435993162960,-4.0276456,8.859743,0.17836803
176,1435993162961,-3.989937,8.895058,0.17836803
177,1435993162962,-3.9863458,8.941745,0.13826515
178,1435993162963,-3.9665937,8.916007,0.1604115
179,1435993162964,-3.9707835,8.974067,0.1412579
180,1435993162996,-4.0019083,8.94773,0.16220717
181,1435993162997,-4.0025067,8.9602995,0.16340427
182,1435993163016,-4.0156746,8.948329,0.19692309
183,1435993163038,-3.9905357,8.937555,0.17178397
184,1435993163066,-3.9228995,8.899248,0.2136825
185,1435993163082,-3.8684313,8.911818,0.24720132
186,1435993163101,-3.7924154,8.945336,0.29987377
187,1435993163116,-3.7122097,8.953117,0.3645172
188,1435993163136,-3.6577415,8.941146,0.42197806
189,1435993163156,-3.6254199,8.948329,0.49799395
190,1435993163175,-3.6194344,8.933964,0.54049104
191,1435993163197,-3.6248214,8.917204,0.56802434
192,1435993163217,-3.6314054,8.926183,0.5662287
193,1435993163237,-3.669114,8.942344,0.57999533
194,1435993163255,-3.7032316,8.966884,0.57281274
195,1435993163277,-3.691859,8.966286,0.52373165
196,1435993163297,-3.6661212,8.967483,0.5129577
197,1435993163315,-3.6403837,8.973468,0.4794389
198,1435993163341,-3.6367924,8.96449,0.46746787
199,1435993163355,-3.655946,9.011177,0.46387658
200,1435993163378,-3.7193923,9.062054,0.42676646
201,1435993163396,-3.6924577,9.093178,0.4261679
202,1435993163415,-3.6631286,9.053674,0.4405331
203,1435993163436,-3.639785,9.026739,0.47046062
204,1435993163457,-3.6619315,8.977059,0.51235914
205,1435993163478,-3.6924577,8.954913,0.5255273
206,1435993163496,-3.721188,8.933964,0.5243302
207,1435993163516,-3.751714,8.93935,0.4961983
208,1435993163537,-3.8145618,8.971672,0.46627077
209,1435993163559,-3.7828386,8.94773,0.43514615
210,1435993163581,-3.7511156,8.968081,0.4357447
211,1435993163600,-3.7193923,8.980651,0.4309563
212,1435993163617,-3.7367504,9.028535,0.42556936
213,1435993163635,-3.7337575,9.000402,0.4369418
214,1435993163657,-3.7253778,9.009979,0.45010993
215,1435993163677,-3.716998,8.970475,0.44352585
216,1435993163700,-3.6882677,9.008782,0.44113165
217,1435993163720,-3.7391446,9.0429,0.5021838
218,1435993163738,-3.7702692,9.116522,0.49559975
219,1435993163756,-3.8373067,9.077616,0.51954174
220,1435993163794,-3.9228995,9.1272955,0.5267244
221,1435993163797,-3.9869444,9.045893,0.5327099
222,1435993163816,-4.0318356,8.926781,0.53570265
223,1435993163836,-4.1222167,8.893861,0.5363012
224,1435993163857,-4.2024226,8.762778,0.53091425
225,1435993163880,-4.31076,8.67958,0.5734113
226,1435993163897,-4.457405,8.668806,0.6051345
227,1435993163918,-4.5914803,8.576629,0.6745663
228,1435993163937,-4.670489,8.416218,0.7727286
229,1435993163961,-4.743512,8.32404,0.91697925
230,1435993163981,-4.8464627,8.429385,1.0313023
231,1435993164023,-4.883573,8.497022,1.1324574
232,1435993164024,-4.8542438,8.453327,1.264737
233,1435993164040,-4.661511,8.4234,1.3617022
234,1435993164064,-4.297592,8.470686,1.460463
235,1435993164078,-3.7960067,8.582016,1.5622166
236,1435993164100,-3.3201592,8.636484,1.6352397
237,1435993164118,-2.7952304,8.79091,1.6783354
238,1435993164139,-2.3116016,8.725668,1.702876
239,1435993164157,-1.9452889,8.930372,1.6705543
240,1435993164179,-1.5179238,8.892664,1.7250223
241,1435993164198,-1.2449849,8.920795,1.690905
242,1435993164263,-0.9379285,8.891466,1.6825253
243,1435993164264,-0.65242,8.937555,1.6681601
244,1435993164265,-0.38965634,9.109938,1.654992
245,1435993164277,-0.12928689,9.507375,1.6645688
246,1435993164303,0.093373865,9.645041,1.7040731
247,1435993164343,0.15382746,9.597756,1.733402
248,1435993164344,0.107739076,9.575011,1.7806876
249,1435993164359,-0.20051439,9.814431,1.7675194
250,1435993164377,-0.25558102,9.700109,1.6346412
251,1435993164398,-0.31483752,9.412804,1.4586674
252,1435993164427,-0.50158525,9.540894,1.1779473
253,1435993164442,-0.76434886,9.992201,0.8936358
254,1435993164458,-0.8750807,10.164583,0.50397944
255,1435993164477,-0.78769237,10.027515,0.1352724
256,1435993164499,-0.7164649,9.959879,-0.1340753
257,1435993164520,-0.6937199,9.925163,-0.28431144
258,1435993164540,-0.5805939,9.718663,-0.39264908
259,1435993164560,-0.4213795,9.4972,-0.43873745
260,1435993164580,-0.24899697,9.431957,-0.4782418
261,1435993164600,-0.110133275,9.667188,-0.5386954
262,1435993164620,0.12150574,9.855133,-0.6338649
263,1435993164639,0.47225627,9.9790325,-0.7374141
264,1435993164657,0.7882909,10.046669,-0.82360536
265,1435993164685,0.8726865,10.152613,-0.8858546
266,1435993164738,0.87807345,10.001179,-0.9175778
267,1435993164739,0.76315176,9.972448,-0.9780314
268,1435993164740,0.57640404,10.129868,-1.0456676
269,1435993164774,0.45310268,10.272323,-1.1192893
270,1435993164778,0.29149407,10.500969,-1.1827357
271,1435993164821,0.19572599,10.654796,-1.2791022
272,1435993164822,0.13946225,10.794857,-1.3503298
273,1435993164839,0.095169514,11.008539,-1.3640964
274,1435993164857,0.12749124,11.116877,-1.3395559
275,1435993164878,0.24361002,11.188704,-1.2629414
276,1435993164899,0.37948096,11.232397,-1.1282675
277,1435993164919,0.073621705,12.154165,-0.5835867
278,1435993164941,-0.6691794,14.655507,-0.30166942
279,1435993164958,0.28311434,11.416751,0.01616086
280,1435993164979,0.59017074,10.233417,0.7685388
281,1435993164999,1.4167689,9.515156,1.328782
282,1435993165022,2.0386627,9.379884,1.6502035
283,1435993165043,2.1110873,9.452309,2.0278888
284,1435993165062,2.360683,8.008605,2.5073278
285,1435993165080,2.349909,7.5974007,2.907758
286,1435993165099,2.3277626,7.7614036,2.9741971
287,1435993165119,2.3768437,7.7608047,2.7730842
288,1435993165139,2.2840683,7.844003,2.4522612
289,1435993165159,2.219425,7.914034,2.095525
290,1435993165181,2.100912,8.218098,1.7705121
291,1435993165235,1.9297266,8.5143795,1.602918
292,1435993165236,1.6711528,8.785523,1.5897499
293,1435993165238,1.3299791,8.982447,1.6514006
294,1435993165262,0.96665895,8.916007,1.7753005
295,1435993165279,0.7823054,8.934562,1.869273
296,1435993165298,0.88765025,8.99741,1.9297266
297,1435993165318,1.1522095,9.0315275,2.0021513
298,1435993165338,1.3982137,9.247005,2.0189106
299,1435993165365,1.5628152,9.3421755,2.147599
300,1435993165381,1.6472107,9.233239,2.2876596
301,1435993165399,1.5741876,9.245809,2.5372553
302,1435993165420,1.3868413,9.308656,2.802413
303,1435993165439,1.3275849,9.235035,3.040636
304,1435993165459,1.1288661,9.243414,3.3441012
305,1435993165480,0.8463503,9.312846,3.6056678
306,1435993165501,0.56682724,9.486425,3.6367924
307,1435993165521,0.46746787,9.505579,3.4883518
308,1435993165540,0.37828386,9.651027,3.2064347
309,1435993165559,-0.053869538,10.314221,2.9586349
310,1435993165580,-1.0696096,12.722189,2.7275944
311,1435993165602,-2.055422,16.424822,2.379238
312,1435993165621,-0.45848963,14.030621,1.3102269
313,1435993165640,2.9442697,8.966884,0.7104794
314,1435993165661,5.1930237,7.271789,-0.83258367
315,1435993165704,5.1475334,9.017162,-1.5233108
316,1435993165706,3.7086184,9.241618,-1.941099
317,1435993165723,2.5474305,8.052897,-2.1458032
318,1435993165741,1.0923545,7.989451,-1.9554642
319,1435993165759,-0.04189853,7.7877398,-1.6986861
320,1435993165778,-0.7308301,8.037335,-1.4155718
321,1435993165801,-0.86131406,8.448539,-1.7537527
322,1435993165819,-0.17058687,8.829816,-2.083554
323,1435993165839,0.031124622,9.988011,-2.4899697
324,1435993165859,0.46327803,10.4405155,-2.6916811
325,1435993165879,1.2455834,9.889849,-2.4929626
326,1435993165901,1.8142064,9.776124,-2.100912
327,1435993165918,2.0147207,9.509769,-1.7328035
328,1435993165939,1.9033904,9.094376,-1.2964603
329,1435993165959,1.5173253,8.84059,-0.90500826
330,1435993165980,1.1252748,8.640674,-0.6500258
331,1435993166002,0.8714894,8.500613,-0.48482585
332,1435993166022,0.8355764,8.507795,-0.46866497
333,1435993166041,0.7727286,9.141062,-0.6123171
334,1435993166059,0.9600749,9.703699,-0.6919243
335,1435993166080,0.9768343,10.414179,-0.6871359
336,1435993166100,1.0133458,10.962451,-0.7846996
337,1435993166121,0.87328506,11.609484,-0.8870517
338,1435993166205,0.89543146,11.85489,-0.99778354
339,1435993166206,0.47465047,12.719196,-0.89603
340,1435993166207,-0.5793968,15.553931,-0.9504981
341,1435993166208,-0.6757634,14.735713,-0.8846575
342,1435993166229,-0.110133275,13.732542,-0.7823054
343,1435993166239,0.8158242,11.574169,-0.076015905
344,1435993166261,1.8321629,9.387066,0.997185
345,1435993166279,2.7006595,7.867347,1.9357121
346,1435993166301,2.9215245,6.8893156,2.9251158
347,1435993166320,2.6210523,6.843227,3.4584243
348,1435993166339,2.3469162,7.041946,3.506907
349,1435993166364,2.0123265,7.043741,3.3195608
350,1435993166380,1.4514848,7.7201033,2.9466639
351,1435993166399,1.1162965,8.062474,2.4953568
352,1435993166420,0.95109665,8.195353,2.0817583
353,1435993166441,0.8170213,8.415619,1.7830818
354,1435993166462,0.8110358,8.553286,1.6184803
355,1435993166481,1.0295067,8.476072,1.5717934
356,1435993166500,1.2240356,8.476671,1.5155296
357,1435993166522,1.3245921,8.554482,1.3670892
358,1435993166539,1.2880806,8.721478,1.1498153
359,1435993166560,1.0851719,8.752005,0.8451532
360,1435993166583,0.79248077,8.505402,0.6242881
361,1435993166601,0.38486794,8.438364,0.44532153
362,1435993166622,-0.15442601,8.736442,0.41060558
363,1435993166640,-0.50397944,8.86932,0.44831428
364,1435993166660,-0.6727707,9.238028,0.57400984
365,1435993166711,-0.8265981,9.71986,0.6302736
366,1435993166714,-0.87927055,10.081385,0.6422446
367,1435993166727,-1.1641805,10.418368,0.6973112
368,1435993166739,-1.6358383,10.850522,0.6847417
369,1435993166759,-2.094328,10.930728,0.47405192
370,1435993166779,-2.5420437,10.939108,0.23223756
371,1435993166802,-2.918532,10.797251,-0.08020575
372,1435993166820,-3.3782187,11.87943,-0.20649989
373,1435993166840,-3.318962,12.234969,-0.81283146
374,1435993166860,-2.7048495,13.1717005,-0.89902276
375,1435993166896,-1.8507179,11.533468,-1.2138603
376,1435993166899,-0.75716627,8.032547,-1.0187328
377,1435993166919,-0.31364042,6.583456,-0.89303726
378,1435993166939,-1.1109096,8.134899,-1.4676456
379,1435993166960,-1.3317747,9.074024,-2.4211364
380,1435993166979,-1.2563573,9.141062,-3.0651767
381,1435993167003,-1.1803415,10.0269165,-3.5290532
382,1435993167024,-0.90381116,10.600328,-3.696049
383,1435993167040,-0.516549,10.029909,-3.2878375
384,1435993167061,-0.30526072,9.579201,-2.6874914
385,1435993167080,-0.350152,9.365519,-2.0871453
386,1435993167100,-0.3824737,8.980651,-1.5741876
387,1435993167121,-0.3788824,8.5700445,-1.0618285
388,1435993167175,-0.41299978,8.497022,-0.6799533
389,1435993167176,-0.44592008,8.536526,-0.4333505
390,1435993167183,-0.46208093,8.483853,-0.30526072
391,1435993167200,-0.45130703,8.343194,-0.22325931
392,1435993167220,-0.5907693,8.470087,-0.23942018
393,1435993167240,-0.5470751,8.517372,-0.39803603
394,1435993167266,-0.5979519,8.628104,-0.62967503
395,1435993167280,-0.7344214,9.164406,-0.9032126
396,1435993167301,-0.9068039,10.146626,-1.2389994
397,1435993167325,-0.93493575,11.027693,-1.4975731
398,1435993167340,-0.8367735,11.459248,-1.6358383
399,1435993167372,-0.770933,11.997943,-1.8423382
400,1435993167380,-0.6290765,12.228984,-1.7711107
401,1435993167404,-0.97384155,13.403938,-1.3012487
402,1435993167421,-1.377863,15.395315,-1.1737574
403,1435993167451,-0.9840169,13.945027,-0.9367314
404,1435993167487,-0.023343466,11.475409,-0.45130703
405,1435993167488,0.41359833,10.189722,0.3669114
406,1435993167500,1.4036007,8.8806925,1.3772645
407,1435993167520,2.4947581,7.77936,2.570774
408,1435993167540,3.5206735,7.1329255,2.9281087
409,1435993167560,3.7313633,7.04434,2.7162218
410,1435993167580,3.1501708,7.715315,2.1936872
411,1435993167666,2.6366146,8.118738,1.5514427
