id,attr_time,attr_x,attr_y,attr_z
1,1437234488010,4.426879,5.2504845,-6.835446
2,1437234488029,4.4005427,5.2606597,-6.835446
3,1437234488050,4.3927617,5.2522798,-6.8408327
4,1437234488068,4.4478283,5.137358,-6.831256
5,1437234488090,4.4885297,5.020641,-6.8480153
6,1437234488109,4.534618,5.1223946,-6.9090676
7,1437234488128,4.4526167,5.2528787,-6.8330517
8,1437234488152,4.431069,5.367202,-6.8480153
9,1437234488172,4.3041763,5.41329,-6.849811
10,1437234488190,4.259285,5.374983,-6.7546415
11,1437234488210,4.2640734,5.2037973,-6.7863646
12,1437234488229,4.264672,5.231331,-6.871359
13,1437234488254,4.2131963,5.2606597,-6.7684083
14,1437234488272,4.3221326,5.241506,-6.841431
15,1437234488296,4.4143095,5.1660886,-6.851008
16,1437234488314,4.4568067,5.2259436,-6.8611836
17,1437234488329,4.4184995,5.227141,-6.809708
18,1437234488351,4.406528,5.185242,-6.8103065
19,1437234488369,4.3317094,5.2181625,-6.7839704
20,1437234488391,4.3358994,5.192425,-6.889914
21,1437234488410,4.257489,5.1822495,-6.9425864
22,1437234488429,4.2143936,5.155315,-6.952163
23,1437234488449,4.2640734,5.1798553,-6.950966
24,1437234488474,4.285621,5.207389,-6.8360443
25,1437234488491,4.2999864,5.1050367,-7.0365586
26,1437234488512,4.2796354,4.9775453,-6.962937
27,1437234488592,4.3478703,5.0559554,-6.847417
28,1437234488593,4.3676224,5.1864395,-6.8851256
29,1437234488594,4.296395,5.2444987,-6.918046
30,1437234488595,4.268263,5.4288526,-6.8480153
31,1437234488609,4.272453,5.341464,-6.894104
32,1437234488629,4.2981906,5.2127757,-6.8324533
33,1437234488649,4.2395325,5.1397524,-6.903681
34,1437234488679,4.232949,5.167286,-6.83365
35,1437234488689,4.255095,5.1882353,-6.8773446
36,1437234488710,4.361038,5.240309,-6.8707604
37,1437234488733,4.3700166,5.240309,-6.861782
38,1437234488753,4.337695,5.291186,-6.88752
39,1437234488773,4.3317094,5.21936,-6.8557963
40,1437234488791,4.32333,5.254674,-6.8623805
41,1437234488809,4.365228,5.233126,-6.827665
42,1437234488830,4.3317094,5.2397103,-6.827665
43,1437234488852,4.309563,5.179257,-6.8450227
44,1437234488875,4.3275194,5.2247467,-6.8252707
45,1437234488892,4.325125,5.3402667,-6.9348054
46,1437234488911,4.3167458,5.28939,-6.849811
47,1437234488935,4.423288,5.254674,-6.854001
48,1437234488952,4.402937,5.229535,-6.8557963
49,1437234488971,4.4687777,5.2026005,-6.724714
50,1437234488990,4.423288,5.315128,-6.770204
51,1437234489009,4.2981906,5.361216,-6.7989345
52,1437234489029,4.322731,5.3396683,-6.803124
53,1437234489049,4.346673,5.230732,-6.7785835
54,1437234489069,4.3795934,5.3043537,-6.7851677
55,1437234489090,4.3700166,5.3061495,-6.8288617
56,1437234489109,4.3317094,5.3318872,-6.8085113
57,1437234489180,4.3885717,5.285799,-6.766014
58,1437234489181,4.4921207,5.33069,-6.6840124
59,1437234489182,4.4514194,5.2385135,-6.7085533
60,1437234489189,4.426879,5.240309,-6.733692
61,1437234489217,4.43466,5.294777,-6.7504516
62,1437234489229,4.462792,5.3444567,-6.8121023
63,1437234489295,4.4059296,5.34326,-6.8228765
64,1437234489296,4.3957543,5.313332,-6.741473
65,1437234489297,4.390966,5.33907,-6.6983776
66,1437234489315,4.396353,5.345654,-6.839636
67,1437234489330,4.39336,5.2810106,-6.7486563
68,1437234489350,4.4544125,5.1481323,-6.725911
69,1437234489370,4.4633904,5.203199,-6.793547
70,1437234489389,4.44304,5.3504424,-6.728904
71,1437234489410,4.437054,5.3145294,-6.845621
72,1437234489429,4.460996,5.4192758,-6.7103486
73,1437234489474,4.4167037,5.415684,-6.613384
74,1437234489475,4.3795934,5.3558292,-6.6624646
75,1437234489498,4.408922,5.3259015,-6.7360864
76,1437234489510,4.3879733,5.3079453,-6.657078
77,1437234489534,4.44723,5.3205147,-6.758233
78,1437234489552,4.471172,5.313332,-6.7534447
79,1437234489569,4.532822,5.324106,-6.7199254
80,1437234489589,4.5364137,5.3181205,-6.6905966
81,1437234489611,4.5016975,5.3115363,-6.612785
82,1437234489633,4.420295,5.3265004,-6.68102
83,1437234489652,4.437653,5.3678,-6.795343
84,1437234489672,4.5022964,5.3857565,-6.6882024
85,1437234489693,4.490924,5.3743844,-6.670246
86,1437234489710,4.441244,5.37199,-6.581062
87,1437234489732,4.422689,5.3288946,-6.7761893
88,1437234489751,4.531027,5.45878,-6.5870476
89,1437234489772,4.481347,5.2516813,-6.6654577
90,1437234489792,4.4717703,5.318719,-6.699575
91,1437234489812,4.5274353,5.449203,-6.689998
92,1437234489833,4.6082397,5.478532,-6.7725983
93,1437234489851,4.413112,5.4683566,-6.6163764
94,1437234489870,4.385579,5.4234653,-6.518214
95,1437234489890,4.38498,5.4623713,-6.5026517
96,1437234489912,4.2874165,5.483919,-6.5828576
97,1437234489933,4.3263226,5.403115,-6.692991
98,1437234489953,4.473566,5.3324857,-6.8109055
99,1437234489971,4.501099,5.182848,-6.851008
100,1437234489989,4.559159,5.239112,-6.7564373
101,1437234490060,4.5819035,5.29777,-6.6588736
102,1437234490061,4.547188,5.3779755,-6.6121864
103,1437234490062,4.4999022,5.4025164,-6.6325374
104,1437234490077,4.4675803,5.3737855,-6.682217
105,1437234490090,4.4208937,5.3199162,-6.747459
106,1437234490110,4.349666,5.207389,-6.849811
107,1437234490130,4.3999443,5.2905874,-6.7761893
108,1437234490150,4.385579,5.277419,-6.933608
109,1437234490170,4.362834,5.3396683,-6.7223196
110,1437234490196,4.3993454,5.195418,-6.825869
111,1437234490211,4.353257,5.2660465,-6.7863646
112,1437234490231,4.3939586,5.3181205,-6.7546415
113,1437234490252,4.4657845,5.4444146,-6.8641763
114,1437234490272,4.422689,5.53719,-6.745663
115,1437234490292,4.272453,5.45459,-6.7187285
116,1437234490320,4.213795,5.1523223,-6.793547
117,1437234490336,4.31076,5.1158104,-6.8049197
118,1437234490354,4.307169,5.209184,-6.7725983
119,1437234490373,4.353257,5.3049526,-6.882133
120,1437234490392,4.35625,5.3701944,-6.849811
121,1437234490410,4.3400893,5.3761797,-6.8450227
122,1437234490433,4.321534,5.309741,-6.8665705
123,1437234490455,4.2778397,5.263054,-6.8402343
124,1437234490471,4.209007,5.2325277,-6.8366427
125,1437234490493,4.179079,5.269638,-6.87914
126,1437234490514,4.204817,5.282806,-6.8773446
127,1437234490534,4.2491093,5.2726307,-6.915652
128,1437234490553,4.216788,5.2409077,-6.791752
129,1437234490574,4.234744,5.1529207,-6.979098
130,1437234490595,4.214992,5.1720743,-6.9264255
131,1437234490616,4.2299557,5.1301756,-6.9701195
132,1437234490630,4.238934,5.2169657,-6.8366427
133,1437234490651,4.309563,5.3115363,-6.903681
134,1437234490671,4.1701007,5.321712,-6.923433
135,1437234490691,4.107253,5.281609,-6.981492
136,1437234490714,4.1826706,5.0906715,-6.9689226
137,1437234490733,4.185663,4.921282,-7.0006456
138,1437234490751,4.162918,5.104438,-6.8522053
139,1437234490775,4.173094,5.1571107,-6.91625
140,1437234490791,4.293402,5.133767,-6.9198413
141,1437234490812,4.3766007,5.303157,-6.930017
142,1437234490837,4.261679,5.3642087,-6.9108634
143,1437234490877,4.1683054,5.321712,-6.8749504
144,1437234490878,4.198831,5.1984105,-6.84203
145,1437234490903,4.2521024,5.1481323,-6.889914
146,1437234490911,4.24492,5.2008047,-6.8851256
147,1437234490937,4.260482,5.2822075,-6.8905125
148,1437234490955,4.2419267,5.3408656,-6.8731546
149,1437234490975,4.211401,5.381567,-6.8958993
150,1437234490994,4.208408,5.1678843,-6.918046
151,1437234491012,4.233547,5.069722,-6.949769
152,1437234491031,4.257489,5.2020016,-6.8947024
153,1437234491053,4.2904096,5.269039,-6.854001
154,1437234491072,4.320337,5.3558292,-6.9090676
155,1437234491094,4.2610803,5.4049106,-6.861782
156,1437234491114,4.256292,5.2678423,-6.863578
157,1437234491134,4.2580876,5.269638,-6.849811
158,1437234491151,4.2556934,5.237316,-6.8492126
159,1437234491172,4.2425256,5.321113,-6.8330517
160,1437234491195,4.213795,5.33069,-6.8689647
161,1437234491216,4.2969937,5.2379146,-6.8246717
162,1437234491235,4.3281183,5.234922,-6.8144965
163,1437234491254,4.308366,5.2863975,-6.8863225
164,1437234491271,4.280234,5.3205147,-6.813898
165,1437234491291,4.260482,5.3205147,-6.8228765
166,1437234491312,4.341286,5.245097,-6.84203
167,1437234491337,4.349067,5.267244,-6.849811
168,1437234491352,4.355053,5.2444987,-6.806117
169,1437234491372,4.3394904,5.3205147,-6.76362
170,1437234491392,4.334702,5.29358,-6.8324533
171,1437234491447,4.395156,5.2181625,-6.7384806
172,1437234491457,4.4424415,5.228338,-6.855198
173,1437234491458,4.4238863,5.3761797,-6.8360443
174,1437234491472,4.396353,5.2959743,-6.818088
175,1437234491490,4.3424835,5.3498435,-6.8480153
176,1437234491513,4.313753,5.3504424,-6.7444663
177,1437234491534,4.3275194,5.37199,-6.754043
178,1437234491555,4.3317094,5.233126,-6.730101
179,1437234491572,4.3089647,5.240309,-6.75524
180,1437234491594,4.382586,5.3079453,-6.7564373
181,1437234491613,4.4777555,5.295376,-6.7684083
182,1437234491633,4.4286747,5.4288526,-6.825869
183,1437234491654,4.3795934,5.3558292,-6.7265096
184,1437234491673,4.3981485,5.307347,-6.7534447
185,1437234491695,4.401141,5.3007627,-6.7630215
186,1437234491715,4.3903675,5.298967,-6.71813
187,1437234491735,4.408922,5.368997,-6.752846
188,1437234491756,4.3885717,5.3498435,-6.7612257
189,1437234491776,4.4633904,5.3498435,-6.7079544
190,1437234491794,4.459201,5.333084,-6.682217
191,1437234491813,4.4633904,5.3037553,-6.807314
192,1437234491833,4.4340615,5.3169236,-6.731298
193,1437234491852,4.4963107,5.203199,-6.695385
194,1437234491872,4.435259,5.3384714,-6.737882
195,1437234491893,4.4795513,5.2875943,-6.6989765
196,1437234491917,4.494515,5.37199,-6.7863646
197,1437234491939,4.3873744,5.4204726,-6.6145806
198,1437234491956,4.423288,5.415684,-6.6846113
199,1437234491973,4.373009,5.2319293,-6.8623805
200,1437234491993,4.4687777,5.403713,-6.588843
201,1437234492012,4.3676224,5.4114943,-6.578069
202,1437234492033,4.3819876,5.5084596,-6.736685
203,1437234492052,4.423288,5.511452,-6.63553
204,1437234492124,4.4298716,5.4887075,-6.6415157
205,1437234492125,4.4675803,5.3737855,-6.6600704
206,1437234492126,4.51726,5.29777,-6.6744356
207,1437234492136,4.4801497,5.3163247,-6.667253
208,1437234492152,4.4502225,5.403115,-6.6959834
209,1437234492173,4.4645877,5.365406,-6.655881
210,1437234492215,4.3885717,5.342661,-6.7091517
211,1437234492216,4.4286747,5.433042,-6.633136
212,1437234492237,4.4179006,5.4498014,-6.7480574
213,1437234492253,4.4262805,5.3618145,-6.8168907
214,1437234492283,4.478953,5.3396683,-6.743269
215,1437234492296,4.486734,5.267244,-6.643311
216,1437234492319,4.559159,5.443816,-6.5960255
217,1437234492338,4.545392,5.354632,-6.657078
218,1437234492354,4.423288,5.4324436,-6.6762314
219,1437234492374,4.3927617,5.518635,-6.505645
220,1437234492394,4.4436383,5.5180364,-6.5128274
221,1437234492414,4.459201,5.4539914,-6.579865
222,1437234492434,4.378995,5.3378725,-6.6504936
223,1437234492452,4.4047327,5.301361,-6.707356
224,1437234492472,4.478953,5.3043537,-6.8007298
225,1437234492496,4.5274353,5.306748,-6.71813
226,1437234492513,4.522647,5.3037553,-6.6846113
227,1437234492535,4.4843397,5.319318,-6.7372837
228,1437234492553,4.540005,5.3282957,-6.6624646
229,1437234492573,4.5046906,5.3444567,-6.7043633
230,1437234492593,4.4364557,5.325303,-6.743269
231,1437234492619,4.406528,5.3079453,-6.7690067
232,1437234492639,4.36044,5.3737855,-6.707356
233,1437234492659,4.320337,5.325303,-6.7504516
234,1437234492676,4.3239284,5.3007627,-6.8127007
235,1437234492695,4.422689,5.276222,-6.700772
236,1437234492713,4.433463,5.2480903,-6.849811
237,1437234492734,4.4879313,5.321113,-6.7905545
238,1437234492753,4.4819455,5.33069,-6.7013707
239,1437234492773,4.559159,5.354632,-6.8067155
240,1437234492847,4.3047748,5.391144,-6.7959414
241,1437234492848,4.2640734,5.342661,-6.741473
242,1437234492849,4.2742486,5.175067,-6.7450647
243,1437234492856,4.298789,5.1475334,-6.7205243
244,1437234492873,4.284424,5.282806,-6.743868
245,1437234492900,4.3460746,5.3276973,-6.847417
246,1437234492913,4.3885717,5.4061074,-6.8198833
247,1437234492934,4.370615,5.3522377,-6.785766
248,1437234492953,4.2969937,5.281609,-6.704962
249,1437234492976,4.234744,5.33907,-6.787562
250,1437234492993,4.209007,5.363012,-6.8731546
251,1437234493013,4.262876,5.221155,-6.907272
252,1437234494567,4.295198,5.221155,-6.891111
253,1437234494568,4.2317514,5.2965727,-6.938995
254,1437234494569,4.2820296,5.3737855,-6.870162
255,1437234494570,4.2957964,5.403713,-6.730101
256,1437234494571,4.3089647,5.28939,-6.903082
257,1437234494572,4.284424,5.185841,-6.8785415
258,1437234494573,4.249708,5.073313,-6.88333
259,1437234494574,4.2515035,5.203199,-6.7402763
260,1437234494575,4.247314,5.324106,-6.8228765
261,1437234494576,4.1683054,5.4683566,-6.96174
262,1437234494577,4.156933,5.379771,-6.9078703
263,1437234494578,4.1000705,5.2169657,-6.87914
264,1437234494579,4.1162314,5.21517,-6.91625
265,1437234494580,4.1653123,5.307347,-6.8127007
266,1437234494581,4.138976,5.273229,-6.983288
267,1437234494582,4.1916485,5.168483,-6.9168487
268,1437234494583,4.281431,5.1690817,-6.9006877
269,1437234494584,4.309563,5.21098,-6.8144965
270,1437234494585,4.296395,5.33907,-6.8486137
271,1437234494586,4.2479124,5.3821654,-6.9066734
272,1437234494587,4.219182,5.3564277,-6.83784
273,1437234494588,4.1838675,5.2840033,-6.847417
274,1437234494589,4.1641154,5.29358,-6.9120603
275,1437234494590,4.232949,5.2480903,-6.8749504
276,1437234494591,4.3143516,5.3396683,-6.851607
277,1437234494592,4.284424,5.2528787,-6.993463
278,1437234494593,4.238934,5.233725,-6.8324533
279,1437234494594,4.2293572,5.1822495,-6.8504095
280,1437234494595,4.283227,5.307347,-6.894104
281,1437234494596,4.337695,5.283405,-6.8384385
282,1437234494597,4.258686,5.403115,-6.8665705
283,1437234494598,4.1653123,5.4444146,-6.7731967
284,1437234494599,4.24073,5.351041,-6.8982935
285,1437234494600,4.2221746,5.1882353,-6.831256
286,1437234494601,4.2359414,5.255273,-6.8144965
287,1437234494602,4.2185836,5.3247046,-6.845621
288,1437234494603,4.293402,5.3079453,-6.927623
289,1437234494604,4.341286,5.2684407,-6.84203
290,1437234494605,4.31914,5.2678423,-6.841431
291,1437234494606,4.299388,5.2875943,-6.827066
292,1437234494607,4.268263,5.291186,-6.870162
293,1437234494608,4.244321,5.3037553,-6.8204823
294,1437234494609,4.249708,5.29358,-6.7983356
295,1437234494610,4.231153,5.239112,-6.8282633
296,1437234494611,4.2874165,5.2780175,-6.845621
297,1437234494612,4.367024,5.3384714,-6.8528037
298,1437234494613,4.3436804,5.317522,-7.006033
299,1437234494614,4.3502645,5.2397103,-6.7983356
300,1437234494615,4.401141,5.131373,-6.823475
301,1437234494616,4.3143516,5.29777,-6.755839
302,1437234494617,4.3089647,5.322909,-6.746262
303,1437234494618,4.406528,5.33488,-6.7881603
304,1437234494619,4.3598413,5.397129,-6.8402343
305,1437234494620,4.333505,5.436035,-6.8228765
306,1437234494621,4.262876,5.3462524,-6.7923503
307,1437234494622,4.2838254,5.283405,-6.785766
308,1437234494623,4.26527,5.271434,-6.700772
309,1437234494624,4.3197384,5.3743844,-6.817489
310,1437234494625,4.392163,5.3803697,-6.7839704
311,1437234494626,4.4568067,5.3845596,-6.71394
312,1437234494627,4.423288,5.346851,-6.715137
313,1437234494628,4.3897686,5.3516393,-6.6893997
314,1437234494629,4.3927617,5.33488,-6.751649
315,1437234494630,4.3957543,5.294777,-6.7929487
316,1437234494631,4.337096,5.3139305,-6.7534447
317,1437234494632,4.3341036,5.3061495,-6.7492547
318,1437234494633,4.396353,5.3558292,-6.8186865
319,1437234494634,4.392163,5.366603,-6.669647
320,1437234494635,4.31076,5.3157263,-6.8204823
321,1437234494636,4.3819876,5.2941785,-6.7265096
322,1437234494637,4.44723,5.2684407,-6.8252707
323,1437234494638,4.4597993,5.3486466,-6.715137
324,1437234494639,4.4544125,5.401319,-6.70975
325,1437234494640,4.44304,5.3342814,-6.7887588
326,1437234494641,4.343082,5.3660045,-6.7205243
327,1437234494642,4.3795934,5.4354362,-6.618172
328,1437234494643,4.344279,5.4324436,-6.6403184
329,1437234494644,4.373009,5.4420204,-6.6864066
330,1437234494645,4.3664255,5.3803697,-6.7079544
331,1437234494646,4.3287168,5.3660045,-6.7223196
332,1437234494647,4.4167037,5.409699,-6.7725983
333,1437234494653,4.4597993,5.390545,-6.681618
334,1437234494673,4.478953,5.3408656,-6.663662
335,1437234494693,4.4837413,5.3127337,-6.640917
336,1437234494713,4.437054,5.3516393,-6.6852098
337,1437234494733,4.390966,5.3857565,-6.658275
338,1437234494753,4.4478283,5.403713,-6.6846113
339,1437234494773,4.4484267,5.4204726,-6.697779
340,1437234494795,4.3861775,5.4204726,-6.633136
341,1437234494815,4.3167458,5.4671597,-6.655881
342,1437234494837,4.4436383,5.4180784,-6.7025676
343,1437234494856,4.4915223,5.3528366,-6.724714
344,1437234494876,4.4873323,5.2636523,-6.669049
345,1437234494895,4.4322658,5.379771,-6.6480994
346,1437234494915,4.4304705,5.4420204,-6.5936313
347,1437234494935,4.5142674,5.517438,-6.679823
348,1437234494957,4.3807907,5.5365915,-6.6241574
349,1437234494977,4.3795934,5.4659624,-6.563704
350,1437234494997,4.437653,5.3899465,-6.623559
351,1437234495016,4.371214,5.422867,-6.699575
352,1437234495034,4.321534,5.389348,-6.70556
353,1437234495056,4.437653,5.3516393,-6.666056
354,1437234495145,4.51307,5.33069,-6.7253127
355,1437234495146,4.5136685,5.4019175,-6.649895
356,1437234495147,4.5154643,5.346851,-6.630143
357,1437234495155,4.489128,5.37199,-6.640917
358,1437234495156,4.4759603,5.4264584,-6.652888
359,1437234495239,4.4580035,5.4498014,-6.669049
360,1437234495240,4.4280763,5.4593782,-6.597223
361,1437234495241,4.39336,5.485116,-6.6085954
362,1437234495242,4.349067,5.481525,-6.5337763
363,1437234495256,4.384382,5.5222263,-6.4882865
364,1437234495275,4.4436383,5.3779755,-6.867768
365,1437234495362,4.5567646,5.297171,-6.755839
366,1437234495363,4.577115,5.121796,-6.76362
367,1437234495364,4.545392,5.2941785,-6.661866
368,1437234495365,4.4699745,5.406706,-6.5804634
369,1437234495393,4.4436383,5.5623293,-6.695385
370,1437234495396,4.2850223,5.5641246,-6.7043633
371,1437234495417,4.2078094,5.5030727,-6.6630635
372,1437234495435,4.384382,5.245097,-6.6480994
373,1437234495455,4.4939165,5.1660886,-6.633136
374,1437234495475,4.4448357,5.245097,-6.637326
375,1437234495496,4.5801077,5.533599,-6.8893156
376,1437234495517,4.5819035,5.620987,-6.7827735
377,1437234495536,4.5118732,5.4324436,-6.630143
378,1437234495558,4.483143,5.271434,-6.569091
379,1437234495579,4.336498,5.2516813,-6.701969
380,1437234495598,4.2664676,5.3019595,-6.7283053
381,1437234495617,4.2874165,5.286996,-6.745663
382,1437234495637,4.377199,5.437232,-6.735488
383,1437234495657,4.2945995,5.4091,-6.797737
384,1437234495676,4.3424835,5.492897,-6.7133417
385,1437234495695,4.4286747,5.4366336,-6.7205243
386,1437234495715,4.474763,5.2678423,-6.9264255
387,1437234495736,4.4244847,5.130774,-6.729502
388,1437234495758,4.4460325,5.1265845,-6.735488
389,1437234495779,4.396353,5.2474914,-6.7624226
390,1437234495797,4.337695,5.306748,-6.782175
391,1437234495817,4.31076,5.48751,-6.8043213
392,1437234495836,4.220978,5.5030727,-6.8013287
393,1437234495856,4.1946416,5.398925,-6.8528037
394,1437234495886,4.224569,5.241506,-6.815694
395,1437234495962,4.268862,5.337274,-6.6786256
396,1437234495963,4.2491093,5.415684,-6.740875
397,1437234495964,4.272453,5.4354362,-6.736685
398,1437234495965,4.3394904,5.3881507,-6.7564373
399,1437234495976,4.3155484,5.400122,-6.791752
400,1437234495996,4.2940006,5.453393,-6.811504
401,1437234496016,4.3023806,5.4342394,-6.8162923
402,1437234496036,4.2945995,5.370793,-6.7205243
403,1437234496056,4.2317514,5.315128,-6.7624226
404,1437234496084,4.259285,5.3235073,-6.7187285
405,1437234496097,4.256292,5.3845596,-6.854001
406,1437234496122,4.2556934,5.315128,-6.870162
407,1437234496136,4.234744,5.271434,-6.8067155
408,1437234496157,4.249708,5.1475334,-7.100005
409,1437234496178,4.2940006,5.12838,-6.9342065
410,1437234496198,4.2598834,5.1409497,-6.8324533
411,1437234496219,4.2862196,5.2965727,-6.815694
412,1437234496237,4.3526587,5.4474072,-6.7965403
413,1437234496257,4.1814733,5.4444146,-6.7749925
414,1437234496276,4.2838254,5.495291,-6.6965823
415,1437234496298,4.2838254,5.3737855,-6.873753
416,1437234496316,4.248511,5.221754,-6.8091097
417,1437234496337,4.209605,5.318719,-6.7767878
418,1437234496370,4.2437224,5.3199162,-6.809708
419,1437234496377,4.2664676,5.379771,-6.7929487
420,1437234496403,4.337695,5.3342814,-6.84203
421,1437234496422,4.250905,5.4162827,-6.754043
422,1437234496437,4.2999864,5.409699,-6.7959414
423,1437234496459,4.31914,5.3205147,-6.8162923
