id,attr_time,attr_x,attr_y,attr_z
1,1436599548910,-8.889671,3.9097314,-0.3429694
2,1436599548929,-8.908226,3.9294837,-0.35913026
3,1436599548953,-8.898649,3.9079356,-0.34356794
4,1436599548976,-8.908226,3.9306808,-0.34476504
5,1436599548990,-8.884284,3.9426517,-0.31783026
6,1436599549013,-8.914211,3.9558198,-0.3333926
7,1436599549033,-8.878897,3.965995,-0.3309984
8,1436599549053,-8.865729,3.9761705,-0.29149407
9,1436599549073,-8.848371,3.9677908,-0.31423897
10,1436599549093,-8.862736,3.9683893,-0.3238158
11,1436599549113,-8.868123,3.965995,-0.3238158
12,1436599549133,-8.877101,3.9737763,-0.3429694
13,1436599549153,-8.869919,3.9707835,-0.3477578
14,1436599549173,-8.857349,3.982156,-0.3369839
15,1436599549194,-8.902839,3.9636009,-0.34237084
16,1436599549210,-8.884883,3.9438488,-0.3417723
17,1436599549233,-8.8884735,3.9306808,-0.31483752
18,1436599549253,-8.909423,3.9133227,-0.31124622
19,1436599549272,-8.869919,3.9013517,-0.31902736
20,1436599549292,-8.902241,3.8881836,-0.31364042
21,1436599549313,-8.9124155,3.9079356,-0.32202014
22,1436599549333,-8.907029,3.928885,-0.3477578
23,1436599549353,-8.9279785,3.930082,-0.3609259
24,1436599549373,-8.908825,3.940856,-0.35793316
25,1436599549391,-8.902241,3.9211037,-0.3513491
26,1436599549413,-8.889671,3.9270895,-0.35254622
27,1436599549433,-8.883685,3.9085343,-0.35194764
28,1436599549453,-8.8777,3.9091327,-0.3321955
29,1436599549475,-8.879496,3.9294837,-0.3453636
30,1436599549552,-8.895058,3.9360676,-0.35793316
31,1436599549553,-8.902839,3.9145198,-0.37110126
32,1436599549554,-8.938752,3.9079356,-0.38367084
33,1436599549555,-8.933365,3.8899791,-0.3812766
34,1436599549573,-8.941745,3.8851907,-0.37708676
35,1436599549594,-8.945336,3.86484,-0.3764882
36,1436599549610,-8.950723,3.86484,-0.36750996
37,1436599549636,-8.950723,3.8504748,-0.3681085
38,1436599549662,-8.949526,3.8600516,-0.38606504
39,1436599549671,-8.966884,3.8373067,-0.35075054
40,1436599549692,-8.92738,3.8259344,-0.35913026
41,1436599549711,-8.872313,3.8468835,-0.3417723
42,1436599549738,-8.9519205,3.8857894,-0.37708676
43,1436599549754,-8.959702,3.8845923,-0.3776853
44,1436599549774,-8.950723,3.8726213,-0.40043023
45,1436599549791,-8.9124155,3.900753,-0.40222588
46,1436599549812,-8.926781,3.8905778,-0.3788824
47,1436599549831,-8.929773,3.8953662,-0.3788824
48,1436599549852,-8.92738,3.8576574,-0.3321955
49,1436599549874,-8.907627,3.8630445,-0.3184288
50,1436599549893,-8.935161,3.8205473,-0.3172317
51,1436599549913,-8.931569,3.83192,-0.33758244
52,1436599549932,-8.942344,3.8193502,-0.34835634
53,1436599549953,-8.966884,3.833117,-0.36391866
54,1436599549973,-8.920197,3.8229415,-0.37469256
55,1436599549994,-8.9602995,3.8325183,-0.3657143
56,1436599550011,-8.951322,3.8139634,-0.37708676
57,1436599550032,-8.953716,3.8259344,-0.35673606
58,1436599550054,-8.929175,3.8061821,-0.32680854
59,1436599550074,-8.944737,3.8133647,-0.3309984
60,1436599550094,-8.924985,3.8019924,-0.2837129
61,1436599550112,-8.942942,3.8175547,-0.31663316
62,1436599550132,-8.948928,3.8391025,-0.35075054
63,1436599550153,-8.963891,3.8498764,-0.33279404
64,1436599550173,-8.959103,3.8361096,-0.35194764
65,1436599550192,-8.965088,3.8402996,-0.33877954
66,1436599550266,-8.94773,3.8307228,-0.33399114
67,1436599550267,-8.92738,3.7924154,-0.31663316
68,1436599550279,-8.953117,3.7948096,-0.320823
69,1436599550280,-8.954314,3.8007953,-0.31004912
70,1436599550291,-8.93935,3.8235402,-0.33039984
71,1436599550319,-8.940548,3.8265328,-0.32142156
72,1436599550331,-8.936956,3.8385038,-0.3196259
73,1436599550353,-8.947132,3.8307228,-0.34117374
74,1436599550373,-8.941146,3.846285,-0.32800564
75,1436599550391,-8.901043,3.8546648,-0.34117374
76,1436599550417,-8.921394,3.858256,-0.32441434
77,1436599550431,-8.94773,3.8444893,-0.338181
78,1436599550454,-8.918402,3.8391025,-0.36272156
79,1436599550472,-8.936956,3.8301241,-0.3429694
80,1436599550494,-8.948928,3.8444893,-0.34955344
81,1436599550514,-8.931569,3.82773,-0.34117374
82,1436599550533,-8.9363575,3.8127663,-0.34237084
83,1436599550554,-8.932168,3.8031895,-0.36391866
84,1436599550574,-9.0016,3.8067808,-0.3728969
85,1436599550594,-8.9842415,3.7906199,-0.39444473
86,1436599550614,-8.9842415,3.7547069,-0.3693056
87,1436599550634,-8.99322,3.7355533,-0.3633201
88,1436599550654,-9.006987,3.7181952,-0.3465607
89,1436599550674,-8.986636,3.6828809,-0.3453636
90,1436599550694,-8.966286,3.681085,-0.3345897
91,1436599550716,-8.978855,3.6966474,-0.338181
92,1436599550734,-9.016563,3.7098155,-0.35434186
93,1436599550753,-9.014768,3.726575,-0.36032736
94,1436599550781,-9.021951,3.739743,-0.39743748
95,1436599550791,-9.007586,3.7660792,-0.3854665
96,1436599550814,-9.025542,3.7816415,-0.39264908
97,1436599550831,-8.963293,3.7786489,-0.3728969
98,1436599550852,-8.995016,3.7924154,-0.33399114
99,1436599550873,-8.944737,3.7989995,-0.31124622
100,1436599550892,-8.96449,3.8181531,-0.28311434
101,1436599550913,-8.923788,3.8247373,-0.27473465
102,1436599550933,-8.921394,3.8373067,-0.25258827
103,1436599551006,-8.88608,3.8660371,-0.2873042
104,1436599551007,-8.916007,3.8965633,-0.25139117
105,1436599551008,-8.900445,3.8720226,-0.24420857
106,1436599551015,-8.901642,3.8618474,-0.26036942
107,1436599551035,-8.920795,3.8259344,-0.24121583
108,1436599551053,-8.9363575,3.7906199,-0.20410569
109,1436599551072,-8.968679,3.78643,-0.24600422
110,1436599551091,-9.008782,3.7415388,-0.27234045
111,1436599551111,-8.979453,3.7229836,-0.25258827
112,1436599551136,-8.998009,3.7307649,-0.25558102
113,1436599551156,-8.990826,3.709217,-0.24720132
114,1436599551172,-9.024344,3.678691,-0.22146365
115,1436599551195,-8.995614,3.6727054,-0.23942018
116,1436599551215,-9.004593,3.651756,-0.22565351
117,1436599551235,-8.998009,3.684078,-0.2088941
118,1436599551255,-9.006987,3.7163997,-0.2148796
119,1436599551275,-8.987235,3.7349546,-0.23523031
120,1436599551293,-8.9602995,3.7654808,-0.24121583
121,1436599551315,-8.933964,3.8013937,-0.26276365
122,1436599551335,-8.9279785,3.8265328,-0.2825158
123,1436599551355,-8.955511,3.846285,-0.29807812
124,1436599551376,-8.945336,3.8367083,-0.29209262
125,1436599551391,-8.945934,3.8301241,-0.2645593
126,1436599551415,-8.920795,3.8235402,-0.25797522
127,1436599551434,-8.966286,3.8043866,-0.25797522
128,1436599551456,-8.95611,3.7816415,-0.26635495
129,1436599551475,-8.955511,3.7714663,-0.2741361
130,1436599551495,-8.943541,3.7630866,-0.29747957
131,1436599551515,-8.978855,3.7780502,-0.3172317
132,1436599551535,-9.017162,3.7582982,-0.31902736
133,1436599551555,-8.992023,3.7606924,-0.33518824
134,1436599551575,-9.009381,3.7696705,-0.34835634
135,1436599551595,-8.989629,3.755904,-0.3453636
136,1436599551615,-9.007586,3.7469256,-0.32920274
137,1436599551635,-9.027936,3.731962,-0.32800564
138,1436599551656,-9.002198,3.7481227,-0.33399114
139,1436599551727,-8.996812,3.738546,-0.30466217
140,1436599551736,-8.965088,3.7373488,-0.30765492
141,1436599551740,-8.982447,3.7217865,-0.30885202
142,1436599551741,-8.977059,3.7445314,-0.2813187
143,1436599551758,-8.982447,3.7672763,-0.28670564
144,1436599551773,-8.996213,3.7882257,-0.2861071
145,1436599551799,-8.969876,3.815759,-0.27114335
146,1436599551814,-8.945336,3.8504748,-0.2621651
147,1436599551869,-8.883087,3.8923733,-0.24420857
148,1436599551870,-8.860941,3.945046,-0.2669535
149,1436599551873,-8.84478,3.9683893,-0.24959552
150,1436599551894,-8.837597,3.9791632,-0.26755205
151,1436599551916,-8.858546,3.9402575,-0.26396075
152,1436599551933,-8.878299,3.9175124,-0.26036942
153,1436599551957,-8.929175,3.8780081,-0.2765303
154,1436599552003,-8.940548,3.8444893,-0.26036942
155,1436599552004,-8.948329,3.779846,-0.26755205
156,1436599552014,-8.983644,3.7463272,-0.26515785
157,1436599552033,-8.965088,3.7122097,-0.25438392
158,1436599552056,-8.992023,3.6661212,-0.2765303
159,1436599552076,-9.058462,3.6290112,-0.2801216
160,1436599552096,-9.066842,3.6074634,-0.26874915
161,1436599552116,-9.100959,3.5972881,-0.28311434
162,1436599552137,-9.085996,3.5930982,-0.2669535
163,1436599552153,-9.082404,3.6110547,-0.2693477
164,1436599552174,-9.082404,3.6343982,-0.2777274
165,1436599552195,-9.070433,3.6583402,-0.25019407
166,1436599552214,-9.0016,3.6804867,-0.24540567
167,1436599552238,-8.966286,3.6990416,-0.21667525
168,1436599552257,-8.974665,3.7241807,-0.22266077
169,1436599552275,-8.962095,3.7403417,-0.23223756
170,1436599552296,-8.957307,3.774459,-0.24061728
171,1436599552316,-8.934562,3.7702692,-0.23702596
172,1436599552334,-8.980052,3.807978,-0.25019407
173,1436599552357,-8.926781,3.8085763,-0.24181437
174,1436599552373,-8.931569,3.7972038,-0.23104046
175,1436599552395,-8.933365,3.8121676,-0.22385786
176,1436599552506,-8.911219,3.8474822,-0.19991584
177,1436599552507,-8.9040365,3.8349125,-0.20530279
178,1436599552508,-8.944139,3.8474822,-0.20530279
179,1436599552509,-8.932767,3.8426938,-0.23463176
180,1436599552510,-8.945934,3.8468835,-0.24420857
181,1436599552525,-8.948329,3.8217444,-0.25617957
182,1436599552534,-8.957307,3.7924154,-0.24241292
183,1436599552556,-8.967483,3.763685,-0.2208651
184,1436599552573,-8.953117,3.7654808,-0.21188685
185,1436599552597,-8.950125,3.7337575,-0.19871874
186,1436599552613,-8.917204,3.7337575,-0.19871874
187,1436599552633,-8.932767,3.74094,-0.18614918
188,1436599552655,-8.950723,3.7469256,-0.20470424
189,1436599552673,-8.957307,3.7391446,-0.24779987
190,1436599552694,-9.006389,3.751714,-0.22984336
191,1436599552714,-9.029133,3.719991,-0.24121583
192,1436599552733,-9.0016,3.6966474,-0.23223756
193,1436599552754,-8.996812,3.6882677,-0.2136825
194,1436599552774,-8.991425,3.6589386,-0.2160767
195,1436599552794,-8.985439,3.6727054,-0.21068975
196,1436599552814,-8.983045,3.663727,-0.22744916
197,1436599552836,-9.044097,3.6643257,-0.24181437
198,1436599552856,-9.001001,3.6583402,-0.24600422
199,1436599552876,-9.006987,3.663727,-0.23762453
200,1436599552900,-9.025542,3.6332011,-0.24480712
201,1436599552916,-9.057863,3.6894648,-0.20350714
202,1436599552936,-9.027936,3.6631286,-0.18914193
203,1436599552956,-8.998607,3.663727,-0.1945289
204,1436599552976,-8.972271,3.6655228,-0.18794483
205,1436599552995,-8.988432,3.6948519,-0.18195933
206,1436599553016,-8.987235,3.6870706,-0.21188685
207,1436599553036,-9.002797,3.7056258,-0.21906945
208,1436599553056,-8.995016,3.70802,-0.22984336
209,1436599553077,-8.978256,3.7086184,-0.24899697
210,1436599553094,-9.006389,3.6733038,-0.24420857
211,1436599553115,-9.026739,3.6367924,-0.24181437
212,1436599553135,-9.035119,3.6373909,-0.2124854
213,1436599553154,-8.9998045,3.6110547,-0.20410569
214,1436599553176,-9.012374,3.6230257,-0.2184709
215,1436599553228,-9.0081835,3.6373909,-0.2160767
216,1436599553242,-9.033323,3.6254199,-0.23163901
217,1436599553243,-9.030331,3.6008794,-0.23283611
218,1436599553253,-9.038112,3.6098576,-0.25258827
219,1436599553274,-9.050681,3.582923,-0.22625206
220,1436599553297,-9.018958,3.5775359,-0.23523031
221,1436599553314,-9.002797,3.5625722,-0.2184709
222,1436599553334,-9.024943,3.5326445,-0.19931729
223,1436599553356,-9.048286,3.50571,-0.20470424
224,1436599553375,-9.072827,3.4805708,-0.19273324
225,1436599553396,-9.071032,3.4680011,-0.20649989
226,1436599553415,-9.100959,3.436278,-0.22685061
227,1436599553437,-9.093178,3.4272997,-0.22445641
228,1436599553457,-9.128492,3.3931823,-0.24301147
229,1436599553477,-9.152434,3.365649,-0.23044191
230,1436599553497,-9.184756,3.3506854,-0.25019407
231,1436599553516,-9.164406,3.3255463,-0.2753332
232,1436599553537,-9.14226,3.329736,-0.2693477
233,1436599553557,-9.156625,3.3225534,-0.29209262
234,1436599553577,-9.147048,3.3279405,-0.2633622
235,1436599553598,-9.123106,3.3303347,-0.2705448
236,1436599553616,-9.192537,3.359065,-0.29448682
237,1436599553637,-9.156625,3.3800142,-0.31364042
238,1436599553655,-9.137471,3.3806129,-0.26874915
239,1436599553677,-9.12131,3.4219127,-0.2717419
240,1436599553694,-9.127894,3.4332852,-0.2741361
241,1436599553843,-9.093777,3.4464533,-0.2753332
242,1436599553844,-9.064447,3.4680011,-0.25977087
243,1436599553845,-9.03452,3.4608185,-0.26994625
244,1436599553846,-9.056067,3.4799721,-0.2801216
245,1436599553854,-9.100959,3.472191,-0.3250129
246,1436599553855,-9.175778,3.426701,-0.34596214
247,1436599553856,-9.175778,3.3375173,-0.32680854
248,1436599553857,-9.206305,3.2303767,-0.24540567
249,1436599554097,-9.2494,3.1292217,-0.18255788
250,1436599554098,-9.242816,3.115455,-0.16280572
251,1436599554099,-9.238626,3.1136594,-0.15382746
252,1436599554100,-9.240421,3.1591492,-0.16699557
253,1436599554101,-9.139865,3.1615434,-0.12868834
254,1436599554102,-9.127894,3.1705215,-0.13227965
255,1436599554103,-9.138668,3.221997,-0.18854338
256,1436599554104,-9.103952,3.281852,-0.21428105
257,1436599554105,-9.135675,3.2974143,-0.27234045
258,1436599554106,-9.129091,3.3387144,-0.30286652
259,1436599554107,-9.144054,3.3464954,-0.31304187
260,1436599554118,-9.1512375,3.3399115,-0.3357868
261,1436599554119,-9.141062,3.335123,-0.31483752
262,1436599554135,-9.146449,3.3560722,-0.31663316
263,1436599554156,-9.175778,3.342904,-0.29688102
264,1436599554175,-9.176975,3.3357215,-0.29568392
265,1436599554207,-9.179369,3.321955,-0.27952304
266,1436599554214,-9.165603,3.2668881,-0.24181437
267,1436599554238,-9.188348,3.1878796,-0.18914193
268,1436599554254,-9.217078,3.116652,-0.10594343
269,1436599554274,-9.21229,3.103484,-0.110133275
270,1436599554295,-9.189545,3.0663738,-0.076015905
271,1436599554314,-9.183559,3.044826,-0.076614454
272,1436599554335,-9.239224,3.0603883,-0.10474633
273,1436599554355,-9.257779,3.067571,-0.12569559
274,1436599554375,-9.212888,3.1292217,-0.110133275
275,1436599554394,-9.184157,3.1244333,-0.095169514
276,1436599554414,-9.218874,3.1202433,-0.10594343
277,1436599554435,-9.154829,3.132813,-0.0664391
278,1436599554455,-9.151836,3.139397,-0.11192893
279,1436599554475,-9.163208,3.1681273,-0.11552023
280,1436599554495,-9.200318,3.1789012,-0.16879122
281,1436599554516,-9.179369,3.1884782,-0.15622166
282,1436599554535,-9.172187,3.180697,-0.19812019
283,1436599554555,-9.19134,3.1202433,-0.17477672
284,1436599554575,-9.199121,3.0585926,-0.13347675
285,1436599554595,-9.224859,2.9861681,-0.11192893
286,1436599554626,-9.171588,2.879626,0.0035913025
287,1436599554638,-9.138668,2.8113914,0.031124622
288,1436599554654,-9.16261,2.8000188,0.023343466
289,1436599554674,-9.21229,2.7527335,0.038307227
290,1436599554694,-9.221867,2.8095956,-0.061650693
291,1436599554715,-9.244013,2.8700492,-0.22685061
292,1436599554735,-9.297284,2.9287071,-0.34117374
293,1436599554756,-9.331401,2.9460652,-0.47345337
294,1436599554776,-9.407417,2.980781,-0.5847838
295,1436599554798,-9.438541,2.9777884,-0.6823475
296,1436599554819,-9.45171,2.9741971,-0.7290344
297,1436599554836,-9.428367,2.8981812,-0.7637503
298,1436599554858,-9.52593,2.7365725,-0.7212533
299,1436599554878,-9.588778,2.5821466,-0.6051345
300,1436599554898,-9.60853,2.510919,-0.4938041
301,1436599554920,-9.5013895,2.415151,-0.40102878
302,1436599554936,-9.299079,2.333748,-0.2669535
303,1436599554958,-9.287108,2.2709002,-0.19752164
304,1436599554977,-9.35235,2.2756886,-0.093972415
305,1436599554996,-9.449316,2.2691047,0.022744916
306,1436599555018,-9.423578,2.328361,0.088585466
307,1436599555036,-9.370307,2.468422,0.15322891
308,1436599555057,-9.341577,2.6659436,0.1592144
309,1436599555078,-9.43495,2.906561,0.14185645
310,1436599555098,-9.489418,3.1771057,0.15801731
311,1436599555118,-9.523536,3.3680432,0.16101007
312,1436599555137,-9.228451,3.5164838,0.19273324
313,1436599555156,-9.116522,3.5871127,0.2633622
314,1436599555179,-9.09258,3.781043,0.31902736
315,1436599555195,-8.815451,3.957017,0.33279404
316,1436599555217,-8.354567,4.1826706,0.3477578
317,1436599555248,-8.199542,4.358644,0.2861071
318,1436599555304,-7.9427643,4.501099,0.24540567
319,1436599555305,-7.802105,4.650737,0.19991584
320,1436599555306,-7.9505453,4.8464627,0.05566519
321,1436599555326,-7.7907324,5.1122193,-0.1436521
322,1436599555335,-7.2592196,5.4444146,-0.5081693
323,1436599555359,-7.0503254,5.725135,-0.7846996
324,1436599555376,-7.1329255,5.723339,-0.9696517
325,1436599555395,-7.5333557,5.9597664,-1.1234791
326,1436599555416,-7.968502,6.259042,-1.3976152
327,1436599555436,-8.067263,6.4463882,-1.5508442
328,1436599555459,-7.9972324,6.5403605,-1.845331
329,1436599555480,-7.872135,6.694188,-2.1697452
330,1436599555497,-8.06008,6.8067155,-2.4355016
331,1436599555516,-8.046313,6.7133417,-2.6378117
332,1436599555538,-7.9445596,6.5547256,-2.734777
333,1436599555559,-7.9702973,6.269816,-2.7730842
334,1436599555577,-7.767389,5.9160724,-2.7012582
335,1436599555599,-7.739856,5.623381,-2.6168625
336,1436599555619,-7.8469963,5.3683987,-2.4929626
337,1436599555636,-7.7105265,5.115212,-2.384625
338,1436599555657,-7.575254,5.04578,-2.292448
339,1436599555679,-7.457938,5.068525,-2.195483
340,1436599555697,-7.526173,5.109825,-2.0308816
341,1436599555718,-7.418434,5.1235914,-1.941099
342,1436599555738,-7.1466923,5.218761,-1.9524715
343,1436599555757,-6.9371996,5.37199,-2.0428526
344,1436599555779,-7.299921,5.57849,-2.1452048
345,1436599555799,-7.873931,5.6880245,-2.1529858
346,1436599555817,-7.826047,5.9531827,-2.243367
347,1436599555840,-8.4587145,6.3488245,-2.3241713
348,1436599555857,-9.41041,6.4661403,-2.344522
349,1436599555876,-9.681553,6.591237,-2.4714148
350,1436599555899,-9.813234,6.6726403,-2.4642322
351,1436599555918,-10.04607,6.703166,-2.2996306
352,1436599555937,-10.418967,6.7067575,-1.958457
353,1436599555958,-10.635642,6.913856,-1.4927847
354,1436599555986,-12.186486,7.3807254,-1.0444705
355,1436599556046,-13.491925,7.726089,-0.27952304
356,1436599556047,-12.834717,7.9667063,0.8074445
357,1436599556048,-10.332776,8.18398,1.757344
358,1436599556066,-7.8493905,8.458116,2.5013423
359,1436599556076,-6.067506,8.118139,3.1729157
360,1436599556099,-4.683657,7.629722,3.728969
361,1436599556117,-5.1379566,7.109582,4.0025067
362,1436599556136,-5.2804117,6.8085113,4.1132383
363,1436599556156,-6.1501055,6.495469,3.9426517
364,1436599556176,-5.6018333,6.0441623,3.7523127
365,1436599556199,-5.8879404,5.431845,3.5033157
366,1436599556218,-6.3865333,4.948815,3.067571
367,1436599556237,-6.7743936,4.4442368,2.7730842
368,1436599556257,-6.157887,3.9863458,2.4235306
369,1436599556280,-5.6485205,3.4159272,2.1757307
370,1436599556300,-5.6060233,2.871845,1.8752584
371,1436599556319,-5.1409497,2.5773582,1.6944963
372,1436599556340,-5.131373,2.3594859,1.4885949
373,1436599556357,-5.693412,2.3211784,1.2922704
374,1436599556379,-6.841431,2.3421278,1.2719196
375,1436599556401,-7.881712,2.5971103,1.3485341
376,1436599556419,-7.963713,3.4302924,1.3904326
377,1436599556441,-8.810662,4.4059296,1.5107412
378,1436599556460,-9.208099,5.45878,1.5699978
379,1436599556479,-8.385093,6.4523735,1.3718776
380,1436599556502,-9.52174,7.138911,1.1994951
381,1436599556522,-10.407595,7.397485,1.074398
382,1436599556536,-11.561002,7.3657618,1.0378864
383,1436599556557,-11.962628,7.062895,0.7344214
384,1436599556577,-13.728951,7.2191167,0.26156655
385,1436599556643,-13.833697,7.506421,-0.6655881
386,1436599556644,-9.360131,8.201338,-2.1200657
387,1436599556645,-5.7023897,8.422802,-3.508104
388,1436599556657,-4.2155905,8.31207,-4.381389
389,1436599556677,-7.973889,7.506421,-4.2742486
390,1436599556697,-8.796896,7.031172,-4.0037036
391,1436599556718,-8.238448,6.7773867,-3.8965633
392,1436599556744,-6.6905966,6.4487824,-3.7427359
393,1436599556764,-5.9400144,5.9801173,-3.496133
394,1436599556778,-5.7347116,5.3648076,-3.0723593
395,1436599556797,-5.9926867,4.501099,-2.6898856
396,1436599556817,-5.5862713,3.482965,-1.9961656
397,1436599556837,-5.1966147,2.7659016,-1.6304513
398,1436599556857,-5.6820393,2.497751,-1.62686
399,1436599556877,-5.7670336,2.60968,-1.7890673
400,1436599556905,-6.0519433,2.9538465,-1.958457
401,1436599556925,-6.667253,3.6894648,-2.1110873
402,1436599556937,-7.386112,4.8458643,-2.3253684
403,1436599556957,-8.437167,6.093842,-2.5671828
404,1436599556977,-9.378687,6.9264255,-2.7389667
405,1436599556997,-9.783905,7.368156,-2.7012582
406,1436599557017,-9.36492,7.823054,-2.7551277
407,1436599557037,-9.4457245,8.372523,-2.6282349
408,1436599557057,-10.809222,8.670602,-1.9788077
