id,attr_time,attr_x,attr_y,attr_z
1,1436802576021,0.35254622,9.455899,-2.0290859
2,1436802576042,0.3705027,9.336189,-1.9913772
3,1436802576061,0.45250413,9.351752,-1.887828
4,1436802576083,0.44592008,9.403826,-1.8620903
5,1436802576102,0.3298013,9.434352,-1.8513165
6,1436802576122,0.30526072,9.478046,-1.8908207
7,1436802576140,0.32022446,9.430161,-2.0069396
8,1436802576171,0.41479546,9.497798,-1.9327193
9,1436802576189,0.43514615,9.578004,-1.9033904
10,1436802576204,0.41958386,9.585785,-1.9369092
11,1436802576224,0.3609259,9.569624,-2.0213048
12,1436802576241,0.3226187,9.547478,-1.9901801
13,1436802576262,0.36272156,9.529521,-2.1218612
14,1436802576282,0.4177882,9.42238,-1.9458874
15,1436802576302,0.38845924,9.479841,-1.9219455
16,1436802576322,0.34596214,9.496601,-1.9273324
17,1436802576341,0.3489549,9.485827,-1.9776106
18,1436802576361,0.39624038,9.464279,-2.0709844
19,1436802576381,0.36631286,9.461885,-1.9536686
20,1436802576402,0.39743748,9.486425,-2.0697873
21,1436802576429,0.4441244,9.530719,-2.106299
22,1436802576511,0.4297592,9.5253315,-2.023699
23,1436802576512,0.40102878,9.502586,-1.9871874
24,1436802576513,0.41479546,9.51336,-2.0655975
25,1436802576514,0.40761283,9.516952,-2.0829554
26,1436802576522,0.37708676,9.483433,-2.030283
27,1436802576546,0.40102878,9.485229,-2.1039047
28,1436802576563,0.4321534,9.499594,-2.147599
29,1436802576581,0.45729253,9.491813,-2.030283
30,1436802576601,0.43514615,9.496601,-2.0548236
31,1436802576621,0.40282443,9.515755,-2.0284874
32,1436802576646,0.40701428,9.518148,-2.0853498
33,1436802576661,0.42078096,9.466674,-2.1511903
34,1436802576681,0.45549688,9.505579,-2.0326772
35,1436802576701,0.46926352,9.489418,-1.9949685
36,1436802576722,0.45549688,9.520543,-2.088941
37,1436802576743,0.40043023,9.572617,-2.204461
38,1436802576762,0.37349546,9.434352,-2.171541
39,1436802576781,0.5255273,9.2907,-1.8974048
40,1436802576803,0.41000703,9.580399,-1.9973627
41,1436802576824,0.31783026,9.406818,-2.2164323
42,1436802576843,0.44651863,9.357738,-1.9662381
43,1436802576863,0.49320555,9.458893,-1.9566613
44,1436802576883,0.44472298,9.58818,-2.0159178
45,1436802576909,0.37229836,9.607931,-2.0524294
46,1436802576924,0.35075054,9.522339,-2.131438
47,1436802576943,0.36272156,9.473258,-2.047641
48,1436802576962,0.41180268,9.486425,-2.042254
49,1436802576982,0.41180268,9.484032,-2.0147207
50,1436802577004,0.42556936,9.456498,-1.9991584
51,1436802577024,0.41958386,9.479243,-1.9973627
52,1436802577043,0.44532153,9.445126,-2.1003134
53,1436802577063,0.46686932,9.36911,-1.9901801
54,1436802577093,0.47405192,9.482835,-2.0733786
55,1436802577106,0.46507367,9.530719,-2.0482395
56,1436802577124,0.44711718,9.5385,-2.130241
57,1436802577147,0.4177882,9.512762,-2.1392193
58,1436802577268,0.46387658,9.486425,-2.0560207
59,1436802577269,0.50757074,9.476251,-2.0440497
60,1436802577270,0.48722005,9.434352,-2.0655975
61,1436802577271,0.41180268,9.433753,-2.0883424
62,1436802577272,0.41000703,9.487024,-2.0817583
63,1436802577273,0.44891283,9.526528,-2.0685902
64,1436802577294,0.47884035,9.486425,-2.0608091
65,1436802577302,0.44651863,9.463082,-2.0691888
66,1436802577322,0.4333505,9.452907,-2.0524294
67,1436802577342,0.4309563,9.472659,-2.0380642
68,1436802577362,0.46507367,9.443929,-2.0452468
69,1436802577383,0.46806642,9.4295635,-2.0560207
70,1436802577403,0.45429978,9.432556,-2.0428526
71,1436802577423,0.45310268,9.485827,-2.0045455
72,1436802577443,0.4381389,9.524733,-2.0135236
73,1436802577465,0.43514615,9.507375,-2.0626047
74,1436802577486,0.4249708,9.47206,-2.0853498
75,1436802577504,0.44592008,9.483433,-2.042254
76,1436802577522,0.4866215,9.474455,-1.9913772
77,1436802577543,0.44831428,9.567828,-2.0446482
78,1436802577563,0.45010993,9.439739,-2.285864
79,1436802577584,0.45729253,9.3583355,-1.8806454
80,1436802577605,0.5069722,9.546879,-1.9524715
81,1436802577625,0.35254622,9.529521,-2.2176294
82,1436802577646,0.40821138,9.36492,-2.1691468
83,1436802577664,0.54288524,9.336189,-1.9907787
84,1436802577687,0.54408234,9.464279,-1.9273324
85,1436802577705,0.42078096,9.570822,-1.9865888
86,1436802577724,0.36032736,9.532514,-2.1799207
87,1436802577743,0.39324763,9.459491,-2.1362264
88,1436802577763,0.43993455,9.483433,-2.078167
89,1436802577786,0.45250413,9.532514,-2.0003555
90,1436802577806,0.4249708,9.507375,-2.0141222
91,1436802577827,0.38845924,9.496002,-2.0925324
92,1436802577845,0.38845924,9.488221,-2.0392613
93,1436802577865,0.42916065,9.459491,-2.110489
94,1436802577884,0.4890157,9.407417,-2.043451
95,1436802577902,0.45609543,9.461885,-2.0147207
96,1436802577923,0.44232875,9.457097,-2.005144
97,1436802577945,0.3752911,9.46847,-2.0242975
98,1436802578013,0.40581718,9.490017,-2.054225
99,1436802578014,0.4429273,9.505579,-2.0919337
100,1436802578015,0.46686932,9.503185,-2.0416555
101,1436802578024,0.43754035,9.516952,-2.046444
102,1436802578043,0.4141969,9.478046,-2.0739772
103,1436802578062,0.40521863,9.466674,-2.0925324
104,1436802578082,0.41240123,9.489418,-2.0649989
105,1436802578103,0.439336,9.494206,-2.0572178
106,1436802578124,0.4165911,9.488221,-2.0907366
107,1436802578144,0.4321534,9.446921,-2.0931308
108,1436802578164,0.4381389,9.430161,-2.0937295
109,1436802578192,0.39923313,9.469068,-2.0751743
110,1436802578212,0.37349546,9.551069,-2.0883424
111,1436802578227,0.39683893,9.522937,-2.082357
112,1436802578244,0.39803603,9.522339,-2.0847511
113,1436802578263,0.44472298,9.519346,-2.018312
114,1436802578283,0.439336,9.48044,-2.0817583
115,1436802578305,0.43754035,9.469068,-2.0655975
116,1436802578324,0.4249708,9.512762,-2.0296845
117,1436802578343,0.4333505,9.534309,-2.0506337
118,1436802578363,0.4369418,9.513959,-2.0931308
119,1436802578438,0.42317516,9.580399,-2.135628
120,1436802578439,0.38067806,9.46009,-2.190096
121,1436802578440,0.5363012,9.305663,-1.7405846
122,1436802578445,0.45190558,9.586384,-2.0679917
123,1436802578463,0.39504328,9.4535055,-2.303222
124,1436802578489,0.5291186,9.337387,-2.1619642
125,1436802578505,0.59376204,9.448717,-1.9231426
126,1436802578534,0.49200845,9.5798,-1.9434932
127,1436802578544,0.42916065,9.650429,-1.946486
128,1436802578563,0.3693056,9.546281,-2.0871453
129,1436802578583,0.40581718,9.494805,-2.171541
130,1436802578603,0.5093664,9.509171,-2.0745757
131,1436802578623,0.48243165,9.539697,-1.9482816
132,1436802578645,0.4405331,9.553463,-1.9548657
133,1436802578664,0.374094,9.569624,-1.9129672
134,1436802578686,0.41359833,9.5385,-2.0087352
135,1436802578713,0.45729253,9.400833,-2.0446482
136,1436802578725,0.5033809,9.425373,-1.9512744
137,1436802578742,0.40821138,9.534908,-1.9255368
138,1436802578762,0.3705027,9.492412,-1.8076223
139,1436802578784,0.39205053,9.411607,-1.9177556
140,1436802578803,0.41958386,9.389461,-1.9728222
141,1436802578825,0.40342298,9.464878,-1.8926164
142,1436802578844,0.40102878,9.598953,-1.7681179
143,1436802578866,0.44771573,9.570223,-1.7794905
144,1436802578886,0.45190558,9.461287,-1.8166006
145,1436802578904,0.41838676,9.407417,-1.8219875
146,1436802578922,0.44951138,9.438541,-1.8495208
147,1436802578946,0.45370123,9.44333,-1.821389
148,1436802578966,0.45310268,9.445126,-1.8411411
149,1436802578986,0.45010993,9.457695,-1.8950106
150,1436802579007,0.4321534,9.515156,-1.9237411
151,1436802579024,0.39923313,9.484032,-1.8974048
152,1436802579044,0.4309563,9.416395,-1.8405426
153,1436802579063,0.45429978,9.387066,-1.9075803
154,1436802579086,0.44651863,9.394249,-1.9129672
155,1436802579106,0.3776853,9.416395,-1.9069817
156,1436802579126,0.37588966,9.464878,-1.9021933
157,1436802579146,0.40821138,9.469068,-1.8836381
158,1436802579167,0.3788824,9.5732155,-2.022502
159,1436802579187,0.38965634,9.576807,-2.0141222
160,1436802579205,0.29448682,9.463082,-2.1577742
161,1436802579223,0.47105917,9.327211,-1.6765398
162,1436802579246,0.3489549,9.609727,-1.8734628
163,1436802579267,0.24720132,9.57561,-2.1751323
164,1436802579288,0.4357447,9.360131,-2.0015526
165,1436802579306,0.46028528,9.470264,-1.9069817
166,1436802579326,0.39264908,9.5253315,-1.8860323
167,1436802579380,0.32680854,9.543288,-1.8902222
168,1436802579381,0.3184288,9.534908,-2.0260932
169,1436802579389,0.3429694,9.558251,-2.12246
170,1436802579416,0.3465607,9.547478,-2.0332758
171,1436802579424,0.3609259,9.488221,-1.9452889
172,1436802579445,0.39145198,9.457695,-1.9692309
173,1436802579464,0.39983168,9.537901,-1.927931
174,1436802579487,0.40761283,9.510367,-2.0141222
175,1436802579505,0.38965634,9.427169,-2.1613655
176,1436802579524,0.39983168,9.4696665,-2.0153193
177,1436802579546,0.39743748,9.527725,-2.0021513
178,1436802579564,0.3800795,9.56304,-1.9979613
179,1436802579588,0.37828386,9.514558,-2.0733786
180,1436802579605,0.3824737,9.497798,-2.0829554
181,1436802579628,0.3800795,9.450513,-2.0452468
182,1436802579644,0.3633201,9.495404,-2.0608091
183,1436802579666,0.3764882,9.498397,-2.0398598
184,1436802579687,0.35194764,9.4774475,-2.0398598
185,1436802579707,0.34835634,9.4774475,-1.9937714
186,1436802579727,0.3633201,9.52593,-2.0296845
187,1436802579747,0.31244332,9.488221,-2.1763294
188,1436802579768,0.32621,9.460688,-2.0811598
189,1436802579788,0.3597288,9.494206,-2.023699
190,1436802579806,0.3842694,9.481637,-2.022502
191,1436802579825,0.39205053,9.452907,-2.0841527
192,1436802579844,0.34476504,9.464279,-2.071583
193,1436802579866,0.3429694,9.471462,-2.0697873
194,1436802579886,0.3561375,9.487024,-2.0470424
195,1436802579908,0.3585317,9.579201,-2.0949266
196,1436802579928,0.38606504,9.475652,-2.2972364
197,1436802579948,0.40043023,9.399636,-1.9674352
198,1436802579967,0.427365,9.570822,-1.9829975
199,1436802579988,0.30466217,9.4972,-2.2140381
200,1436802580006,0.35434186,9.379285,-2.2188265
201,1436802580026,0.48243165,9.356541,-2.059612
202,1436802580044,0.4902128,9.460688,-2.0165164
203,1436802580064,0.39205053,9.534309,-1.9578584
204,1436802580118,0.3716998,9.561843,-2.095525
205,1436802580119,0.37708676,9.498397,-2.1505916
206,1436802580137,0.40701428,9.45171,-2.1703439
207,1436802580145,0.4321534,9.460688,-2.106299
208,1436802580165,0.4441244,9.462483,-2.0428526
209,1436802580188,0.40701428,9.501988,-2.1110873
210,1436802580205,0.34955344,9.5570545,-1.9476831
211,1436802580225,0.40342298,9.680356,-2.2541409
212,1436802580246,0.45789108,9.53012,-2.1332338
213,1436802580266,0.47345337,9.560646,-2.1152773
214,1436802580288,0.45070848,9.516354,-2.0578163
215,1436802580306,0.46447513,9.498995,-2.0087352
216,1436802580325,0.4357447,9.481637,-2.154183
217,1436802580346,0.46387658,9.43914,-2.123657
218,1436802580368,0.46627077,9.427768,-2.106299
219,1436802580388,0.5291186,9.507974,-2.0901382
220,1436802580408,0.4973954,9.591172,-2.0614076
221,1436802580429,0.41240123,9.551069,-2.0626047
222,1436802580448,0.4369418,9.482236,-2.0937295
223,1436802580466,0.45609543,9.4457245,-2.067393
224,1436802580485,0.44771573,9.383475,-1.9776106
225,1436802580505,0.47644615,9.518747,-1.9357121
226,1436802580529,0.48362875,9.601946,-1.9381063
227,1436802580546,0.45130703,9.551069,-2.0296845
228,1436802580565,0.44352585,9.438541,-2.0697873
229,1436802580589,0.42556936,9.470264,-2.0895395
230,1436802580609,0.44592008,9.498397,-1.9231426
231,1436802580629,0.39743748,9.415796,-2.119467
232,1436802580648,0.4878186,9.409811,-1.4987702
233,1436802580667,0.41718966,9.60853,-1.9883845
234,1436802580686,0.35553896,9.405622,-2.0638018
235,1436802580706,0.4333505,9.309854,-1.988983
236,1436802580728,0.51475334,9.435549,-1.9255368
237,1436802580749,0.50876784,9.551667,-1.9165585
238,1436802580769,0.46327803,9.637859,-1.9440918
239,1436802580787,0.40162733,9.671976,-2.0488381
240,1436802580806,0.44592008,9.529521,-2.0087352
241,1436802580866,0.46567222,9.43076,-2.0416555
242,1436802580867,0.46447513,9.434352,-1.9165585
243,1436802580868,0.43275195,9.463681,-1.9123687
244,1436802580889,0.39384618,9.5013895,-1.9045875
245,1436802580907,0.42317516,9.400833,-1.8608932
246,1436802580929,0.4818331,9.348161,-1.9470845
247,1436802580947,0.48123455,9.352949,-1.8237832
248,1436802580967,0.4333505,9.40203,-1.8106151
249,1436802580987,0.40162733,9.378687,-1.8417397
250,1436802581006,0.38187516,9.307459,-1.9405005
251,1436802581026,0.42676646,9.263765,-2.011728
252,1436802581046,0.50397944,9.249998,-1.9710265
253,1436802581069,0.57879823,9.43076,-1.9536686
254,1436802581086,0.55365914,9.580399,-1.9865888
255,1436802581109,0.5153519,9.554661,-2.088941
256,1436802581128,0.47165772,9.503783,-2.1272483
257,1436802581147,0.49799395,9.476251,-2.1033063
258,1436802581165,0.52133745,9.48044,-2.1134815
259,1436802581186,0.50637364,9.464279,-2.1057005
260,1436802581208,0.46447513,9.384672,-1.9656396
261,1436802581229,0.4141969,9.406818,-1.99437
262,1436802581249,0.39324763,9.446322,-2.1015105
263,1436802581271,0.37110126,9.6049385,-2.0655975
264,1436802581289,0.36631286,9.47206,-2.2385786
265,1436802581310,0.33997664,9.239823,-1.6980876
266,1436802581330,0.23523031,9.624691,-1.8387469
267,1436802581349,0.12449849,9.415796,-2.055422
268,1436802581367,0.17238252,9.294291,-2.1392193
269,1436802581388,0.22625206,9.300277,-1.934515
270,1436802581410,0.15981296,9.476849,-1.9321208
271,1436802581430,-0.05207389,9.541492,-2.1122844
272,1436802581449,-0.16460137,9.44333,-2.2589293
273,1436802581468,-0.19393034,9.332,-2.2930467
274,1436802581487,-0.25977087,9.272144,-2.2463598
275,1436802581506,-0.37708676,9.173384,-2.2571337
276,1436802581526,-0.6655881,8.857349,-2.183512
277,1436802581546,-0.64583594,9.0476885,-2.1452048
278,1436802581599,-0.82240826,9.128492,-1.9776106
279,1436802581600,-0.97623575,9.1350765,-2.2092497
280,1436802581618,-0.985214,9.288305,-2.083554
281,1436802581627,-1.1019313,9.562442,-2.0219033
282,1436802581646,-1.2258313,9.5013895,-2.0590134
283,1436802581670,-1.2611457,9.651027,-2.19668
284,1436802581687,-1.2749124,9.845556,-2.067393
285,1436802581706,-0.9091981,10.43872,-2.11827
286,1436802581730,-2.7641058,9.231443,-2.2613235
287,1436802581746,-1.8950106,9.496002,-2.3798366
288,1436802581767,-1.7711107,9.451111,-2.4779987
289,1436802581789,-1.5161282,9.255385,-2.047641
290,1436802581810,-1.4927847,9.55885,-2.2134395
291,1436802581827,-1.9716251,9.669582,-2.4247277
292,1436802581848,-2.178125,9.448118,-2.224812
293,1436802581867,-2.19249,9.299678,-2.1589713
294,1436802581887,-2.0679917,9.184157,-2.2373815
295,1436802581906,-1.9416976,9.165004,-2.1757307
296,1436802581928,-1.8776526,9.205706,-2.5629928
297,1436802581948,-1.946486,9.036914,-2.244564
298,1436802581970,-1.8980033,8.829816,-2.071583
299,1436802581989,-1.8064252,8.6496525,-2.146402
300,1436802582007,-1.7064673,8.602965,-1.7687165
301,1436802582029,-1.8590976,8.754398,-1.4927847
302,1436802582049,-1.9632454,8.739435,-1.1306617
303,1436802582068,-2.0111294,8.529344,-1.0229226
304,1436802582090,-1.7776948,8.730456,-0.6278794
305,1436802582109,-1.875857,9.088988,0.08798691
306,1436802582130,-2.31639,9.144054,0.42556936
307,1436802582149,-2.5240872,8.939949,0.36032736
308,1436802582167,-2.3068132,9.000402,0.0005985504
309,1436802582187,-2.183512,9.5570545,-0.11552023
310,1436802582208,-1.2689269,10.8595,-1.0702082
311,1436802582228,-0.24600422,10.752958,-2.1176715
312,1436802582251,0.5979519,11.556811,-3.2094274
313,1436802582268,2.5605986,12.21821,-2.5611973
314,1436802582289,4.4843397,12.133814,-2.8287494
315,1436802582367,4.8225207,9.534908,-3.6709096
316,1436802582368,5.2840033,7.435792,-3.821146
317,1436802582369,2.3038206,3.9103298,-3.8923733
318,1436802582370,5.1559134,6.2315083,-3.5751417
319,1436802582387,4.987122,8.488044,-3.2184057
320,1436802582410,2.1218612,8.967483,-3.7247794
321,1436802582427,3.8127663,10.403405,-4.0240545
322,1436802582447,2.907758,8.046912,-4.572925
323,1436802582468,4.6255975,7.9912467,-3.2998085
324,1436802582489,5.0134583,8.215703,-1.8740613
325,1436802582509,4.742315,8.200739,-1.4981717
326,1436802582528,4.5322237,7.8547773,-2.1643584
327,1436802582549,4.134786,7.8787193,-3.0376434
328,1436802582568,3.7966053,8.164826,-4.028843
329,1436802582588,3.25791,8.431181,-5.0158525
330,1436802582638,3.4614172,8.659827,-4.7518916
331,1436802582639,4.007295,8.550293,-4.2461166
332,1436802582647,4.144962,7.03596,-4.2945995
333,1436802582667,5.273828,7.6045833,-3.469797
334,1436802582688,4.3622355,7.1873937,-3.5913026
335,1436802582708,3.9516299,7.171831,-3.3728316
336,1436802582727,3.6912606,6.64391,-3.3051953
337,1436802582747,3.4919431,6.136339,-3.0933087
338,1436802582767,3.2429461,5.9148755,-2.428319
339,1436802582787,2.6491842,6.296152,-2.1978772
340,1436802582808,2.2146366,7.0904284,-2.4534583
341,1436802582829,2.5528176,7.867347,-2.8886044
342,1436802582856,2.6557682,7.1754227,-2.6803088
343,1436802582867,3.4871547,6.7612257,-1.7351977
344,1436802582888,3.378817,5.4647655,-1.0755951
345,1436802582907,2.9753942,4.164714,-0.05925649
346,1436802582927,2.4672248,3.5511997,0.17776948
347,1436802582947,1.4024036,3.366846,-1.0510546
348,1436802582968,0.8230068,5.081693,-2.5133133
349,1436802582989,0.1604115,8.686164,-1.532289
350,1436802583007,1.1534066,17.571646,-4.4406457
351,1436802583027,0.6410475,17.536331,-0.33758244
352,1436802583060,-1.7016789,18.983027,-4.947618
353,1436802583073,-6.069301,14.680048,-10.304645
354,1436802583088,-2.1505916,14.085089,-6.423643
355,1436802583109,-0.3681085,11.6585655,-3.5224693
356,1436802583128,-1.3006501,9.0716305,-4.895544
357,1436802583146,-0.6548142,8.199542,-4.670489
358,1436802583167,-0.439336,7.821857,-3.6870706
359,1436802583186,-0.48722005,7.7368627,-4.305373
360,1436802583209,-0.47465047,7.0605006,-4.212598
361,1436802583229,-0.32202014,6.4008985,-3.1711202
362,1436802583250,-0.4333505,6.045359,-2.6485856
363,1436802583269,-0.25318682,5.6521115,-2.6833014
364,1436802583288,-0.39264908,5.3396683,-2.6964695
365,1436802583309,-1.3563153,5.647323,-2.4672248
366,1436802583328,-1.917157,6.56131,-1.8501194
367,1436802583347,-1.3760674,6.066907,-1.2976574
368,1436802583367,0.85293436,6.4948707,-2.4271219
369,1436802583389,3.0591912,8.7370405,-1.9758149
370,1436802583411,4.301782,13.941437,-5.1906295
371,1436802583428,1.1282675,17.340605,-4.4819455
372,1436802583450,-2.308609,17.761385,-6.4505777
373,1436802583467,-2.391209,16.166847,-7.8452005
374,1436802583487,1.0151415,16.018406,-3.9360676
375,1436802583509,2.5504234,13.490129,-1.6795325
376,1436802583531,2.6210523,8.995016,-3.3782187
377,1436802583551,0.6835446,6.799533,-2.621651
378,1436802583571,-1.2054806,7.335834,-1.7076644
379,1436802583588,-2.3403323,8.290522,-3.027468
380,1436802583607,-1.6454151,9.110536,-3.9731777
381,1436802583630,-0.17058687,9.988011,-3.2345665
382,1436802583649,0.78649527,8.84059,-2.9083564
383,1436802583669,1.1617863,7.349002,-3.1842883
384,1436802583690,1.5987282,6.156091,-2.9059622
385,1436802583772,1.9033904,5.407305,-2.166154
386,1436802583773,0.4345476,3.441665,-2.3403323
387,1436802583774,2.042254,4.187459,-2.0332758
388,1436802583775,0.94211835,4.9362454,-1.9033904
389,1436802583801,0.30585927,5.0134583,-1.6885108
390,1436802583808,0.39624038,4.256292,-1.9249382
391,1436802583837,0.8762778,3.74513,-0.95229375
392,1436802583848,1.2072762,4.7800236,-1.1109096
393,1436802583881,0.8050503,5.0667295,-2.8419175
394,1436802583890,1.5442601,6.528988,-2.8514943
395,1436802583909,1.8537107,9.496002,0.59376204
396,1436802583928,3.3704374,17.217901,-2.2337902
397,1436802583949,2.516306,19.608511,-4.31914
398,1436802583968,-1.1803415,18.033726,-6.18123
399,1436802583990,-3.1423898,14.942213,-6.445191
400,1436802584010,-1.1043255,12.515091,-3.2728736
401,1436802584030,0.8882488,9.264363,-1.9931729
402,1436802584049,0.36631286,6.087258,-3.1022868
403,1436802584069,-0.31064767,6.4858923,-3.3423057
404,1436802584088,0.110731825,10.120291,-2.2661119
405,1436802584109,0.20949265,11.617265,-2.384625
406,1436802584131,-0.0047884034,10.344149,-3.1789012
407,1436802584149,0.62129533,8.885481,-3.0735564
408,1436802584170,-1.5131354,6.129755,-2.4702177
409,1436802584191,-0.6368576,5.1541176,-1.1899183
410,1436802584209,0.14664486,3.2010477,-0.007182605
411,1436802584232,2.2062569,1.8608932,-1.0582372
412,1436802584250,3.3117795,4.5447936,-0.8810662
413,1436802584272,2.9137435,9.920375,0.035913024
