id,attr_time,attr_x,attr_y,attr_z
1,1436799258003,-8.568848,4.248511,1.6795325
2,1436799258022,-8.555081,4.271256,1.6962919
3,1436799258042,-8.5473,4.231153,1.7292122
4,1436799258062,-8.600571,4.2185836,1.75076
5,1436799258079,-8.607155,4.198831,1.7513585
6,1436799258102,-8.567052,4.147356,1.7866731
7,1436799258122,-8.447342,4.261679,1.7375919
8,1436799258144,-8.456321,4.449025,1.6711528
9,1436799258158,-8.474875,4.4903255,1.6687586
10,1436799258180,-8.512584,4.5382094,1.6196774
11,1436799258198,-8.425795,4.607641,1.5741876
12,1436799258218,-8.328231,4.707599,1.4862007
13,1436799258239,-8.408437,4.6680946,1.4580688
14,1436799258263,-8.522161,4.5280337,1.4580688
15,1436799258280,-8.4664955,4.410718,1.4808137
16,1436799258304,-8.516774,4.341286,1.4784195
17,1436799258323,-8.528147,4.283227,1.4514848
18,1436799258340,-8.576629,4.2544966,1.417966
19,1436799258358,-8.619724,4.2305546,1.364695
20,1436799258381,-8.772355,4.2299557,1.3676877
21,1436799258399,-8.639477,4.271256,1.3503298
22,1436799258434,-8.547898,4.305373,1.3431472
23,1436799258440,-8.505402,4.31914,1.3545196
24,1436799258459,-8.483853,4.3514614,1.3401544
25,1436799258481,-8.652046,4.264672,1.3994108
26,1436799258498,-8.670003,4.1665096,1.4508862
27,1436799258518,-8.678981,4.143166,1.4628572
28,1436799258539,-8.6257105,4.07134,1.5047557
29,1436799258559,-8.611943,4.0258503,1.508347
30,1436799258579,-8.668207,3.980959,1.4616601
31,1436799258602,-8.752005,4.0043025,1.4389153
32,1436799258622,-8.774749,4.009091,1.4329298
33,1436799258646,-8.871116,4.0258503,1.4532804
34,1436799258661,-8.872313,3.9636009,1.5316905
35,1436799258684,-8.781932,3.9797618,1.5861586
36,1436799258702,-8.6299,4.096479,1.6077064
37,1436799258722,-8.369531,4.3119574,1.5801731
38,1436799258743,-8.405443,4.4424415,1.5705963
39,1436799258762,-8.552687,4.433463,1.5664065
40,1436799258782,-8.504205,4.374805,1.6041151
41,1436799258801,-8.486248,4.3819876,1.6460136
42,1436799258823,-8.4347725,4.4526167,1.6466122
43,1436799258843,-8.297106,4.5082817,1.6262615
44,1436799258863,-8.368932,4.51307,1.6035166
45,1436799258882,-8.453327,4.496909,1.5855601
46,1436799258903,-8.525154,4.4999022,1.5628152
47,1436799258923,-8.498817,4.498705,1.5298948
48,1436799258942,-8.515577,4.4382515,1.5005659
49,1436799258963,-8.526949,4.370615,1.5047557
50,1436799258982,-8.504205,4.374805,1.4981717
51,1436799259002,-8.546701,4.3688197,1.5376761
52,1436799259022,-8.647258,4.2820296,1.5987282
53,1436799259042,-8.597578,4.185663,1.6400281
54,1436799259062,-8.485051,4.212598,1.6136919
55,1436799259081,-8.501212,4.286818,1.5646108
56,1436799259137,-8.547898,4.313753,1.5406688
57,1436799259139,-8.637681,4.1784806,1.54845
58,1436799259146,-8.641871,4.0737343,1.6053122
59,1436799259162,-8.7125,4.1162314,1.6059108
60,1436799259181,-8.739435,4.1665096,1.6184803
61,1436799259204,-8.629301,4.143166,1.654992
62,1436799259221,-8.4664955,4.107253,1.6412252
63,1436799259246,-8.558673,4.150947,1.6130934
64,1436799259261,-8.678383,4.295198,1.5652094
65,1436799259281,-8.619724,4.396951,1.5460558
66,1436799259301,-8.4587145,4.4633904,1.5825673
67,1436799259322,-8.364742,4.4274774,1.6274586
68,1436799259345,-8.424597,4.38498,1.6807296
69,1436799259363,-8.506598,4.405331,1.6657659
70,1436799259383,-8.48984,4.465186,1.6424223
71,1436799259403,-8.41921,4.470573,1.6226702
72,1436799259423,-8.401853,4.486734,1.6077064
73,1436799259443,-8.444948,4.5046906,1.5496471
74,1436799259463,-8.38629,4.5124717,1.4826094
75,1436799259483,-8.430583,4.5178585,1.4562732
76,1436799259503,-8.560468,4.4478283,1.447295
77,1436799259523,-8.53892,4.3927617,1.4431051
78,1436799259541,-8.537724,4.357447,1.4335283
79,1436799259562,-8.517971,4.39336,1.4454993
80,1436799259584,-8.573038,4.445434,1.4443022
81,1436799259601,-8.663419,4.4035354,1.5143325
82,1436799259621,-8.541314,4.3424835,1.5628152
83,1436799259640,-8.455722,4.333505,1.5388732
84,1436799259666,-8.458116,4.422689,1.4682442
85,1436799259686,-8.584411,4.405331,1.4395138
86,1436799259706,-8.5383215,4.3526587,1.412579
87,1436799259721,-8.613141,4.355053,1.435324
88,1436799259742,-8.519168,4.369418,1.4556746
89,1436799259762,-8.534731,4.3035774,1.5352819
90,1436799259782,-8.569447,4.198831,1.5807717
91,1436799259802,-8.659229,4.1012673,1.6873137
92,1436799259875,-8.600571,4.119224,1.7046716
93,1436799259876,-8.558074,4.1611223,1.7172412
94,1436799259877,-8.622718,4.1461587,1.7322049
95,1436799259881,-8.670602,4.1371803,1.7723078
96,1436799259901,-8.580819,4.1838675,1.8022354
97,1436799259922,-8.41921,4.252701,1.8130093
98,1436799259942,-8.407239,4.344279,1.7944542
99,1436799259961,-8.439561,4.362834,1.7238252
100,1436799259981,-8.511986,4.3664255,1.7154455
101,1436799260001,-8.517372,4.331111,1.7262194
102,1436799260028,-8.383896,4.295198,1.7058687
103,1436799260042,-8.360553,4.361637,1.6645688
104,1436799260063,-8.42759,4.4837413,1.7088615
105,1436799260085,-8.592192,4.5082817,1.7597382
106,1436799260101,-8.503606,4.4526167,1.8082209
107,1436799260124,-8.383297,4.4244847,1.769315
108,1436799260144,-8.392874,4.477157,1.6825253
109,1436799260164,-8.285733,4.5842977,1.5795746
110,1436799260184,-8.374918,4.5980644,1.5544355
111,1436799260204,-8.418612,4.4963107,1.5263035
112,1436799260224,-8.421604,4.450821,1.4790181
113,1436799260242,-8.403049,4.4400473,1.4706384
114,1436799260266,-8.498817,4.4484267,1.477821
115,1436799260283,-8.606557,4.4801497,1.489792
116,1436799260304,-8.659827,4.540005,1.5436616
117,1436799260323,-8.604162,4.5501804,1.5759833
118,1436799260342,-8.561666,4.4897265,1.6448165
119,1436799260363,-8.39048,4.525041,1.6627731
120,1436799260384,-8.128315,4.683657,1.6304513
121,1436799260404,-8.1720085,4.8398786,1.6304513
122,1436799260424,-8.380903,4.7907977,1.6753427
123,1436799260443,-8.553286,4.626795,1.7657237
124,1436799260463,-8.565256,4.472967,1.7866731
125,1436799260483,-8.417415,4.44304,1.7980455
126,1436799260503,-8.339603,4.313154,1.8830396
127,1436799260522,-8.44016,4.006098,1.9339164
128,1436799260542,-8.500613,3.876811,1.939902
129,1436799260594,-8.480861,4.0497923,1.8297687
130,1436799260595,-8.595184,4.3568487,1.7238252
131,1436799260613,-8.81605,4.368221,1.7615339
132,1436799260621,-8.642469,4.5723267,1.726818
133,1436799260643,-8.298303,4.796783,1.5927427
134,1436799260665,-8.085219,4.855441,1.4987702
135,1436799260681,-8.021772,4.7620673,1.3988123
136,1436799260706,-8.224682,4.6058455,1.3413515
137,1436799260723,-8.53892,4.4113164,1.3138182
138,1436799260743,-8.6496525,4.377199,1.2797008
139,1436799260764,-8.531737,4.3634324,1.2629414
140,1436799260782,-8.617929,4.422689,1.3509283
141,1436799260805,-8.513183,4.520851,1.271321
142,1436799260825,-8.492832,4.7494974,1.2521675
143,1436799260845,-8.380903,4.7961845,1.2467805
144,1436799260863,-8.161235,4.899135,1.2054806
145,1436799260885,-8.352771,4.8662148,1.2036849
146,1436799260905,-8.3408,4.771045,1.2216414
147,1436799260925,-8.517971,4.619014,1.2731167
148,1436799260945,-8.631696,4.525041,1.3634979
149,1436799260962,-8.639477,4.4675803,1.417966
150,1436799260985,-8.503606,4.496909,1.4431051
151,1436799261002,-8.446744,4.477157,1.4891934
152,1436799261023,-8.382699,4.4801497,1.4993688
153,1436799261045,-8.504205,4.5160627,1.5089456
154,1436799261062,-8.373122,4.598663,1.4856021
155,1436799261083,-8.430583,4.6285906,1.5173253
156,1436799261105,-8.470686,4.557363,1.5628152
157,1436799261124,-8.418612,4.569334,1.5975311
158,1436799261145,-8.343793,4.589086,1.553837
159,1436799261170,-8.37372,4.6860514,1.4790181
160,1436799261185,-8.336611,4.748899,1.4209588
161,1436799261205,-8.450933,4.6285906,1.4969746
162,1436799261224,-8.48146,4.429273,1.608305
163,1436799261244,-8.553286,4.249708,1.7256209
164,1436799261264,-8.605958,4.2413282,1.7950528
165,1436799261282,-8.593389,4.252701,1.7962499
166,1436799261349,-8.4234,4.3143516,1.7968484
167,1436799261350,-8.31207,4.31495,1.7411832
168,1436799261351,-8.344392,4.3993454,1.6262615
169,1436799261362,-8.291719,4.4687777,1.5436616
170,1436799261388,-8.394072,4.5202527,1.5304934
171,1436799261423,-8.662222,4.537611,1.5831659
172,1436799261424,-8.537724,4.540005,1.5783775
173,1436799261445,-8.341399,4.5723267,1.5436616
174,1436799261467,-8.197746,4.520851,1.5215151
175,1436799261488,-8.378509,4.5483847,1.4885949
176,1436799261502,-8.526351,4.5286326,1.4610616
177,1436799261525,-8.598177,4.551976,1.3928268
178,1436799261543,-8.6299,4.5244427,1.3634979
179,1436799261565,-8.5538845,4.3981485,1.4149733
180,1436799261585,-8.470686,4.3640313,1.3982137
181,1436799261606,-8.417415,4.4645877,1.34195
182,1436799261625,-8.491635,4.474763,1.2802993
183,1436799261645,-8.564059,4.43885,1.2785037
184,1436799261665,-8.619126,4.3556514,1.228824
185,1436799261685,-8.492233,4.283227,1.2204443
186,1436799261708,-8.534132,4.3634324,1.2186487
187,1436799261722,-8.694544,4.262876,1.2970588
188,1436799261745,-8.665813,4.2066126,1.3323733
189,1436799261765,-8.605958,4.257489,1.2779051
190,1436799261785,-8.566454,4.322731,1.2743138
191,1436799261806,-8.623915,4.4017396,1.3000516
192,1436799261826,-8.635885,4.4143095,1.2779051
193,1436799261846,-8.573038,4.461595,1.2599486
194,1436799261866,-8.494029,4.4795513,1.2384008
195,1436799261886,-8.458116,4.51307,1.2324153
196,1436799261905,-8.531737,4.4717703,1.2773066
197,1436799261927,-8.566454,4.4161053,1.3138182
198,1436799261947,-8.567651,4.4179006,1.340753
199,1436799261967,-8.463503,4.471172,1.287482
200,1436799262069,-8.4664955,4.5232453,1.2886791
201,1436799262070,-8.400655,4.481347,1.2958617
202,1436799262071,-8.441357,4.4963107,1.3227965
203,1436799262072,-8.532336,4.5681367,1.3108255
204,1436799262082,-8.480263,4.619014,1.2856863
205,1436799262083,-8.422203,4.629189,1.2808979
206,1436799262108,-8.325836,4.7261543,1.2886791
207,1436799262123,-8.194156,4.9919105,1.2779051
208,1436799262144,-8.377911,4.9625816,1.3497312
209,1436799262166,-8.280347,4.9057193,1.4377182
210,1436799262183,-8.090008,5.0864816,1.371279
211,1436799262204,-8.036138,5.1505265,1.3850456
212,1436799262224,-8.109161,5.08708,1.4664485
213,1436799262287,-8.246229,4.8895583,1.5328877
214,1436799262288,-8.194754,4.8722005,1.5448587
215,1436799262289,-8.137293,4.8404775,1.5275006
216,1436799262303,-8.224682,4.8344917,1.5328877
217,1436799262323,-8.157045,4.981137,1.4634558
218,1436799262343,-8.198944,5.093664,1.3970166
219,1436799262363,-8.173804,5.1247888,1.3587095
220,1436799262383,-8.139688,5.1571107,1.3443443
221,1436799262403,-8.071452,5.1607018,1.3335704
222,1436799262423,-8.085817,5.2085857,1.283292
223,1436799262443,-8.121132,5.2486887,1.2276269
224,1436799262463,-8.030751,5.2265425,1.1486182
225,1436799262486,-8.025364,5.185242,1.0684125
226,1436799262503,-8.063671,5.003283,1.0690111
227,1436799262526,-8.191761,4.771644,1.050456
228,1436799262543,-8.267777,4.833295,0.85413146
229,1436799262563,-8.194754,5.1517234,0.49440265
230,1436799262583,-8.289325,5.485116,0.29209262
231,1436799262604,-8.8088665,5.288193,0.43873745
232,1436799262626,-8.641871,5.1158104,0.6584055
233,1436799262647,-8.298303,4.875193,0.7763199
234,1436799262669,-8.144476,4.794389,0.85772276
235,1436799262685,-8.44375,4.844667,0.9696517
236,1436799262703,-8.476072,4.7896004,0.99538934
237,1436799262731,-8.436568,4.869208,0.93732995
238,1436799262742,-8.26658,5.0224366,0.84335756
239,1436799262763,-8.190564,5.16968,0.79248077
240,1436799262782,-8.218098,5.2905874,0.7218518
241,1436799262804,-8.175002,5.3342814,0.6422446
242,1436799262822,-8.013393,5.385158,0.4914099
243,1436799262843,-8.109161,5.21098,0.47884035
244,1436799262863,-8.197148,5.0822916,0.480636
245,1436799262886,-8.50181,4.770447,0.5530606
246,1436799262906,-8.752603,4.5423994,0.6655881
247,1436799262923,-8.555081,4.4633904,0.748188
248,1436799262943,-8.452729,4.5016975,0.7942764
249,1436799262963,-8.444349,4.606444,0.8391677
250,1436799262985,-8.438364,4.730344,0.8343793
251,1436799263003,-8.487445,4.8039656,0.79607207
252,1436799263024,-8.336012,4.911106,0.7320272
253,1436799263046,-8.523956,4.84347,0.78888947
254,1436799263066,-8.63828,4.7830167,0.8762778
255,1436799263083,-8.395268,4.7842135,0.9367314
256,1436799263107,-8.394072,4.8320975,1.002572
257,1436799263126,-8.385692,4.8422728,1.0145429
258,1436799263146,-8.372523,4.943428,0.96905315
259,1436799263166,-8.383896,4.9458222,0.9475053
260,1436799263185,-8.24563,5.097854,0.94451255
261,1436799263205,-8.279748,5.04997,0.9816227
262,1436799263226,-8.109161,5.111022,0.9900024
263,1436799263245,-8.132504,4.996699,1.062427
264,1436799263268,-8.145074,4.987122,1.0684125
265,1436799263289,-8.26658,5.007473,1.0600328
266,1436799263309,-8.273763,5.04997,1.1091139
267,1436799263328,-8.241441,5.0643353,1.163582
268,1436799263430,-8.189965,5.0278234,1.1749545
269,1436799263431,-8.002021,4.983531,1.1426327
270,1436799263432,-8.06427,5.0439844,1.0642227
271,1436799263433,-8.288726,5.084686,0.94570965
272,1436799263434,-8.38629,5.143344,0.8475474
273,1436799263511,-8.343793,5.1636944,0.7625532
274,1436799263512,-8.214506,5.2199583,0.6997054
275,1436799263513,-7.8469963,5.3486466,0.56802434
276,1436799263514,-8.143278,5.298967,0.5201403
277,1436799263524,-8.37372,5.092467,0.48961425
278,1436799263559,-8.53892,4.883573,0.43394905
279,1436799263564,-8.662222,4.7375264,0.3585317
280,1436799263585,-8.504205,4.626795,0.23523031
281,1436799263611,-8.604761,4.501099,0.23403321
282,1436799263624,-8.711303,4.3999443,0.30107087
283,1436799263644,-8.802881,4.1826706,0.40641573
284,1436799263666,-8.683769,4.200627,0.3609259
285,1436799263684,-8.4647,4.2036195,0.25857377
286,1436799263706,-8.761581,3.9270895,0.35254622
287,1436799263726,-8.990228,3.484162,0.38307226
288,1436799263747,-8.935161,3.5368345,0.2148796
289,1436799263764,-9.213487,3.738546,-0.01616086
290,1436799263786,-9.260772,3.9959226,-0.19931729
291,1436799263804,-9.026739,4.008492,-0.23942018
292,1436799263844,-9.002797,3.8684313,-0.2777274
293,1436799263845,-8.986636,3.8881836,-0.29867667
294,1436799263867,-9.120112,3.942053,-0.31364042
295,1436799263885,-8.889671,3.86484,-0.29388827
296,1436799263905,-8.582615,3.7511156,-0.17417817
297,1436799263925,-8.668806,3.738546,-0.24600422
298,1436799263945,-8.774749,3.7547069,-0.39145198
299,1436799263969,-9.005191,3.8468835,-0.6266823
300,1436799263990,-9.063251,4.039018,-0.79726917
301,1436799264006,-9.099164,4.1383777,-0.9451111
302,1436799264025,-9.065046,4.4023385,-1.0965444
303,1436799264046,-9.074024,4.620809,-1.0971429
304,1436799264066,-8.845378,4.708796,-0.985214
305,1436799264093,-8.668806,4.7081976,-0.79367787
306,1436799264146,-8.620323,4.744709,-0.6422446
307,1436799264147,-8.507197,4.7040076,-0.46866497
308,1436799264148,-8.525752,4.6513352,-0.30466217
309,1436799264167,-8.444948,4.6860514,-0.15622166
310,1436799264186,-8.570643,4.529231,-0.0023942017
311,1436799264209,-8.546701,4.469376,0.005985504
312,1436799264225,-8.665215,4.4687777,-0.047884032
313,1436799264245,-8.732252,4.4119153,-0.10534488
314,1436799264266,-8.757391,4.3424835,-0.14784196
315,1436799264286,-8.836999,4.216788,-0.079008654
316,1436799264307,-9.0476885,4.0940847,0.009576807
317,1436799264325,-8.924387,4.1174283,0.044891283
318,1436799264346,-8.908226,4.074931,0.11432313
319,1436799264367,-8.905831,4.1018662,0.17717093
320,1436799264388,-8.848371,4.1718965,0.2621651
321,1436799264406,-8.929773,4.2401314,0.30945057
322,1436799264428,-8.744224,4.331111,0.31603462
323,1436799264448,-8.655039,4.3622355,0.25438392
324,1436799264466,-8.684368,4.423288,0.2657564
325,1436799264488,-8.647857,4.449025,0.27473465
326,1436799264508,-8.641871,4.358644,0.2753332
327,1436799264528,-8.597578,4.3065705,0.28790274
328,1436799264548,-8.642469,4.3101616,0.2633622
329,1436799264566,-8.689755,4.3275194,0.21906945
330,1436799264588,-8.693945,4.422689,0.18794483
331,1436799264606,-8.845977,4.4633904,0.18195933
332,1436799264627,-8.84059,4.3993454,0.18495208
333,1436799264648,-8.75799,4.4783545,0.16998832
334,1436799264675,-8.965088,4.5100775,0.16938977
335,1436799264691,-8.875904,4.396353,0.34117374
336,1436799264712,-8.648455,4.096479,0.48961425
337,1436799264726,-8.656835,3.9546227,0.6123171
338,1436799264747,-8.81605,3.8630445,0.6823475
339,1436799264765,-8.913613,3.752911,0.75357497
340,1436799264788,-8.965687,3.6876693,0.80445176
341,1436799264806,-8.987235,3.705027,0.86849666
342,1436799264891,-8.842385,3.7062242,0.90740246
343,1436799264892,-8.817246,3.7421372,0.91817635
344,1436799264893,-8.779537,3.8283286,0.89782566
345,1436799264894,-8.84478,3.8684313,0.89303726
346,1436799264905,-8.705916,3.934272,0.8870517
347,1436799264929,-8.632295,3.9492357,0.8948329
348,1436799264947,-8.614936,4.006098,0.9068039
349,1436799264969,-8.725668,4.068946,0.8834604
350,1436799264988,-8.814852,4.1180267,0.878672
351,1436799265006,-8.857349,4.0892963,0.866701
352,1436799265033,-8.794501,4.11683,0.8194155
353,1436799265045,-8.72088,4.1419687,0.76195467
354,1436799265066,-8.683769,4.162918,0.74519527
355,1436799265086,-8.713697,4.2000284,0.6739678
356,1436799265107,-8.86513,4.2305546,0.66259533
357,1436799265128,-8.829816,4.200627,0.6428431
358,1436799265147,-8.651448,4.197634,0.60573304
359,1436799265172,-8.5383215,4.1718965,0.58298814
360,1436799265186,-8.488044,4.1904516,0.52073884
361,1436799265206,-8.537125,4.270657,0.46507367
362,1436799265229,-8.428787,4.279037,0.4369418
363,1436799265246,-8.4904375,4.3299136,0.46088383
364,1436799265269,-8.788516,4.486734,0.38606504
365,1436799265287,-8.775348,4.7058034,0.25737667
366,1436799265307,-8.790312,4.895544,0.12689269
367,1436799265329,-8.593987,5.0679264,0.13227965
368,1436799265347,-8.533533,4.981735,0.23702596
369,1436799265368,-8.4647,4.823119,0.27832595
370,1436799265391,-8.563461,4.758476,0.31663316
371,1436799265427,-8.531139,4.683657,0.35314476
372,1436799265428,-8.498219,4.6920366,0.44113165
373,1436799265447,-8.459313,4.530428,0.60932434
374,1436799265467,-8.4647,4.5076833,0.65242
375,1436799265487,-8.593987,4.619014,0.6985083
376,1436799265507,-8.570643,4.630985,0.82719666
377,1436799265526,-8.499416,4.634576,1.0516531
378,1436799265556,-8.467094,4.571728,1.1665748
379,1436799265648,-8.486248,4.654328,1.1911154
380,1436799265649,-8.370728,4.569334,1.3377602
381,1436799265650,-8.296508,4.4777555,1.3856442
382,1436799265651,-8.325238,4.6471453,1.2749124
383,1436799265659,-8.310274,4.729147,1.1653777
384,1436799265676,-8.56825,4.7261543,1.2653356
385,1436799265713,-8.347982,4.7261543,1.3664906
386,1436799265714,-7.7865424,4.6166196,1.3694834
387,1436799265726,-7.426215,4.5142674,1.3132197
388,1436799265755,-8.341997,4.711789,1.3108255
389,1436799265772,-9.144653,4.6926355,1.460463
390,1436799265789,-8.965088,4.673482,1.5729905
391,1436799265817,-8.916606,4.6519337,1.6490064
392,1436799265827,-8.728661,4.683657,1.6573862
393,1436799265852,-8.435969,4.6537294,1.7196354
394,1436799265868,-8.531139,4.5382094,1.8686744
395,1436799265891,-8.196549,4.497508,1.9027919
396,1436799265908,-8.128315,4.4915223,1.83336
397,1436799265953,-8.117541,4.486734,1.6903064
398,1436799265954,-8.24563,4.5005007,1.5592239
399,1436799265967,-8.508993,4.505289,1.483208
400,1436799265991,-8.67539,4.5238442,1.4065934
401,1436799266007,-8.599973,4.502895,1.3275849
402,1436799266027,-8.476671,4.4244847,1.2491747
403,1436799266053,-8.4108305,4.4382515,1.1456255
404,1436799266067,-8.6095495,4.4873323,1.1186907
405,1436799266093,-8.922591,4.50888,1.1001357
406,1436799266107,-8.672397,4.4687777,1.1228806
407,1436799266131,-8.525154,4.4753613,1.0755951
408,1436799266147,-8.636484,4.571728,1.0193313
409,1436799266167,-8.755595,4.575918,0.98461545
410,1436799266187,-8.862736,4.5256395,0.9379285
411,1436799266207,-8.663419,4.5220485,0.9091981
412,1436799266231,-8.641273,4.5663414,0.84934306
413,1436799266253,-8.429385,4.5765166,0.79367787
414,1436799266267,-8.429385,4.510676,0.7164649
415,1436799266288,-8.455722,4.357447,0.6817489
416,1436799266313,-8.605958,4.1653123,0.6787562
417,1436799266371,-8.738237,4.045004,0.66498953
418,1436799266372,-8.620922,3.9719806,0.57760113
419,1436799266373,-8.5383215,3.9863458,0.4782418
420,1436799266390,-8.498817,3.9707835,0.37469256
421,1436799266408,-8.752603,3.99293,0.25198972
