id,attr_time,attr_x,attr_y,attr_z
1,1436966160511,-7.9266033,5.5988407,-0.30705637
2,1436966160530,-7.6829934,5.8388596,-0.338181
3,1436966160550,-7.6488757,5.8388596,-0.2741361
4,1436966160570,-7.575853,5.81372,-0.095768064
5,1436966160590,-7.3831196,6.1369376,-0.12569559
6,1436966160610,-7.1951747,6.4511766,-0.12270284
7,1436966160630,-6.711546,6.571485,-0.08499416
8,1436966160650,-6.4948707,6.717531,-0.05267244
9,1436966160670,-6.585252,6.932411,-0.14784196
10,1436966160690,-6.4817023,7.2268977,-0.32321724
11,1436966160710,-6.4739213,7.668628,-0.45070848
12,1436966160730,-6.3709707,7.635708,-0.43514615
13,1436966160750,-6.2392898,7.689577,-0.46088383
14,1436966160770,-6.2021794,7.768586,-0.5590461
15,1436966160790,-6.0441623,7.7308774,-0.6344634
16,1436966160811,-6.120178,7.6231384,-0.5907693
17,1436966160830,-6.1106014,7.514202,-0.53091425
18,1436966160850,-5.969942,7.611766,-0.4842273
19,1436966160870,-5.877765,7.6961613,-0.49919105
20,1436966160892,-5.8215013,7.771579,-0.5895722
21,1436966160910,-5.880758,7.9331875,-0.7110779
22,1436966160930,-5.9142766,8.012196,-0.7200562
23,1436966160950,-5.8639984,7.9385743,-0.7380127
24,1436966160970,-5.773019,7.9086466,-0.7374141
25,1436966160990,-5.899313,7.868544,-0.6973112
26,1436966161011,-5.793968,7.832032,-0.7200562
27,1436966161030,-5.891532,7.8829093,-0.79367787
28,1436966161050,-5.979519,7.8745294,-0.7954735
29,1436966161070,-5.875371,7.7967176,-0.7870938
30,1436966161090,-5.8358665,7.77517,-0.8146271
31,1436966161110,-5.9926867,7.752425,-0.84694886
32,1436966161130,-6.096236,7.6841903,-0.7625532
33,1436966161150,-6.0567317,7.6051817,-0.7110779
34,1436966161170,-5.9448028,7.579444,-0.6655881
35,1436966161190,-5.9783216,7.5285673,-0.65780693
36,1436966161210,-6.0166287,7.6165543,-0.7140707
37,1436966161233,-6.0746884,7.641693,-0.724246
38,1436966161255,-6.0184245,7.6644382,-0.7380127
39,1436966161276,-5.8909335,7.679402,-0.7823054
40,1436966161295,-6.0064535,7.663241,-0.7685388
41,1436966161315,-6.0645127,7.60578,-0.7368156
42,1436966161335,-6.114791,7.627328,-0.8086416
43,1436966161356,-6.117784,7.701548,-0.79966336
44,1436966161376,-6.130952,7.650073,-0.74519527
45,1436966161395,-6.0704985,7.642292,-0.6877344
46,1436966161416,-5.988497,7.6129627,-0.6410475
47,1436966161434,-5.9244523,7.6027875,-0.6266823
48,1436966161459,-6.0226145,7.644686,-0.6895301
49,1436966161518,-6.1303535,7.65127,-0.6793547
50,1436966161529,-5.8879404,7.6668324,-0.6961141
51,1436966161531,-5.977723,7.639299,-0.7254431
52,1436966161532,-6.2728086,7.579444,-0.65660983
53,1436966161553,-6.113594,7.493851,-0.59017074
54,1436966161577,-5.8903346,7.502231,-0.6536171
55,1436966161593,-6.0411696,7.5471225,-0.65301853
56,1436966161611,-6.0836663,7.599196,-0.6584055
57,1436966161635,-6.0483522,7.680599,-0.7015011
58,1436966161651,-6.0836663,7.771579,-0.729633
59,1436966161676,-6.14412,7.731476,-0.6512229
60,1436966161692,-6.005256,7.642292,-0.6422446
61,1436966161715,-6.059126,7.5734587,-0.5638345
62,1436966161735,-6.1943984,7.5082164,-0.4782418
63,1436966161755,-6.075287,7.515998,-0.53330845
64,1436966161773,-6.077681,7.513005,-0.52612585
65,1436966161795,-6.118981,7.527969,-0.57999533
66,1436966161815,-6.14412,7.5483193,-0.6380547
67,1436966161835,-6.18123,7.5590935,-0.6404489
68,1436966161855,-6.1716533,7.550115,-0.6679823
69,1436966161874,-6.1824274,7.5806413,-0.6793547
70,1436966161895,-6.1926026,7.61835,-0.6572084
71,1436966161912,-6.23091,7.583634,-0.635062
72,1436966161933,-6.192004,7.61416,-0.75357497
73,1436966161955,-6.329072,7.6213427,-0.7565677
74,1436966161972,-6.205172,7.5644803,-0.7918822
75,1436966161994,-6.4098763,7.583634,-0.7703344
76,1436966162015,-6.4990606,7.392098,-0.66139823
77,1436966162035,-6.3284736,7.2388687,-0.7032967
78,1436966162056,-6.4386067,7.1700354,-0.7020996
79,1436966162079,-6.591237,7.0970125,-0.7697359
80,1436966162093,-6.6846113,7.005434,-0.842759
81,1436966162112,-6.9228344,6.84203,-0.8218097
82,1436966162132,-7.1610575,6.564901,-0.8283938
83,1436966162152,-7.295731,6.4206505,-0.8367735
84,1436966162180,-7.415441,6.3823433,-0.9103952
85,1436966162237,-7.5243773,6.271611,-0.9684546
86,1436966162240,-7.4681134,6.153697,-0.94810385
87,1436966162242,-7.545925,6.0483522,-0.9475053
88,1436966162257,-7.74225,5.8771667,-0.9008184
89,1436966162274,-7.844003,5.7562594,-0.8451532
90,1436966162300,-7.912238,5.7538652,-0.9708488
91,1436966162313,-7.9996266,5.7616463,-1.0307038
92,1436966162332,-8.097789,5.763442,-0.9840169
93,1436966162354,-8.213309,5.674258,-0.9403227
94,1436966162373,-8.262989,5.590461,-0.88405895
95,1436966162393,-8.151658,5.54138,-0.86011696
96,1436966162413,-7.8691425,5.6790466,-0.9223662
97,1436966162435,-7.769783,5.616797,-0.84694886
98,1436966162453,-7.908048,5.571906,-0.61291564
99,1436966162476,-8.37013,5.6640825,-0.33758244
100,1436966162523,-8.115147,5.729325,-0.073621705
101,1436966162524,-7.3340383,5.9268465,0.038905777
102,1436966162532,-7.012018,6.0507464,0.14425065
103,1436966162556,-7.1873937,6.059126,0.32621
104,1436966162576,-7.491457,5.9926867,0.41718966
105,1436966162593,-7.6003933,5.8747725,0.45489833
106,1436966162616,-7.7224975,5.753267,0.4249708
107,1436966162633,-7.807492,5.6030307,0.4189853
108,1436966162654,-7.8888946,5.4982843,0.40581718
109,1436966162676,-8.002021,5.377377,0.41359833
110,1436966162696,-8.0606785,5.233126,0.4357447
111,1436966162715,-8.106767,5.2157683,0.41180268
112,1436966162734,-8.070255,5.191228,0.4189853
113,1436966162756,-8.125322,5.170877,0.41240123
114,1436966162776,-8.214506,5.139154,0.4225766
115,1436966162796,-8.166622,5.167286,0.46208093
116,1436966162816,-8.18398,5.1259856,0.45489833
117,1436966162834,-8.159439,5.094861,0.52612585
118,1436966162855,-8.137293,5.00448,0.5494693
119,1436966162876,-8.174403,4.97156,0.57400984
120,1436966162896,-8.331821,4.979341,0.57520694
121,1436966162918,-8.176797,4.9775453,0.55725044
122,1436966162970,-8.163031,5.046977,0.51355624
123,1436966162973,-8.437167,5.024831,0.54408234
124,1436966162977,-8.56825,4.9422307,0.60693014
125,1436966162994,-8.582615,4.9362454,0.5686229
126,1436966163014,-8.4425535,4.8458643,0.54288524
127,1436966163036,-8.124125,4.8662148,0.45130703
128,1436966163053,-8.319252,4.784812,0.55844754
129,1436966163073,-8.409634,4.7919946,0.599149
130,1436966163096,-8.294712,4.891354,0.5793968
131,1436966163114,-8.387487,4.936844,0.52133745
132,1436966163135,-8.269572,4.96318,0.42556936
133,1436966163156,-8.304289,4.9679685,0.3537433
134,1436966163174,-8.365939,4.9182887,0.29209262
135,1436966163196,-8.285135,4.8285065,0.23702596
136,1436966163215,-8.401254,4.759074,0.21667525
137,1436966163236,-8.46889,4.666898,0.18974048
138,1436966163256,-8.429984,4.6698904,0.15682021
139,1436966163276,-8.584411,4.6441526,0.13946225
140,1436966163296,-8.663419,4.622605,0.14963761
141,1436966163314,-8.610746,4.6381674,0.14784196
142,1436966163336,-8.520964,4.6381674,0.12988544
143,1436966163356,-8.394072,4.718373,-0.006584055
144,1436966163376,-8.446744,4.8045645,-0.03172317
145,1436966163394,-8.340201,4.833295,-0.08140286
146,1436966163413,-8.446145,4.872799,-0.09696517
147,1436966163433,-8.615535,4.823718,-0.035913024
148,1436966163453,-8.541913,4.775235,-0.044292733
149,1436966163474,-8.447941,4.800973,-0.12569559
150,1436966163499,-8.500014,4.84347,-0.16819267
151,1436966163518,-8.56825,4.8201265,-0.15741876
152,1436966163535,-8.566454,4.778228,-0.109534726
153,1436966163557,-8.488044,4.759673,-0.11552023
154,1436966163574,-8.519767,4.7381253,-0.12389994
155,1436966163594,-8.585009,4.687847,-0.06943185
156,1436966163614,-8.535329,4.6698904,-0.04309563
157,1436966163634,-8.568848,4.6513352,0.010773907
158,1436966163653,-8.511986,4.654927,-0.038307227
159,1436966163723,-8.464102,4.7016134,-0.023343466
160,1436966163727,-8.495825,4.7141833,-0.016759412
161,1436966163739,-8.444948,4.7135844,0.004189853
162,1436966163740,-8.494628,4.733337,0.02873042
163,1436966163753,-8.507197,4.731541,0.02813187
164,1436966163782,-8.51857,4.701015,0.05686229
165,1436966163795,-8.479664,4.6884456,0.077213004
166,1436966163813,-8.563461,4.6513352,0.11492168
167,1436966163836,-8.507197,4.6202106,0.130484
168,1436966163854,-8.525154,4.582502,0.1388637
169,1436966163875,-8.421006,4.6022544,0.12389994
170,1436966163895,-8.503007,4.650737,0.11312603
171,1436966163915,-8.643068,4.6351743,0.18136078
172,1436966163935,-8.511986,4.6202106,0.12389994
173,1436966163956,-8.465299,4.6782703,0.11971009
174,1436966163977,-8.455722,4.7135844,0.11432313
175,1436966163997,-8.462306,4.7177744,0.10414778
176,1436966164017,-8.44016,4.76925,0.08678981
177,1436966164034,-8.476072,4.7560816,0.093972415
178,1436966164056,-8.485051,4.7656584,0.095768064
179,1436966164077,-8.534731,4.736928,0.11133038
180,1436966164096,-8.459313,4.7201686,0.10654198
181,1436966164117,-8.563461,4.7123876,0.14664486
182,1436966164134,-8.474277,4.694431,0.17058687
183,1436966164157,-8.454525,4.654927,0.17537527
184,1436966164176,-8.48984,4.696825,0.17776948
185,1436966164196,-8.47308,4.708796,0.15023616
186,1436966164216,-8.455123,4.731541,0.14065935
187,1436966164235,-8.479664,4.732738,0.12629414
188,1436966164257,-8.485051,4.717176,0.15442601
189,1436966164277,-8.480263,4.7165775,0.15741876
190,1436966164296,-8.513183,4.684854,0.15981296
191,1436966164316,-8.46051,4.6920366,0.1376666
192,1436966164338,-8.549694,4.6782703,0.14724341
193,1436966164357,-8.449138,4.6513352,0.1388637
194,1436966164377,-8.479065,4.6776714,0.11552023
195,1436966164400,-8.678383,4.7016134,0.14425065
196,1436966164462,-8.57184,4.6686935,0.15801731
197,1436966164463,-8.401853,4.678869,0.1388637
198,1436966164464,-8.491036,4.703409,0.13946225
199,1436966164484,-8.501212,4.696825,0.17357962
200,1436966164494,-8.470087,4.6920366,0.17776948
201,1436966164520,-8.433576,4.705205,0.1448492
202,1436966164534,-8.503007,4.717176,0.12449849
203,1436966164554,-8.552687,4.7261543,0.14185645
204,1436966164576,-8.492832,4.701015,0.108337626
205,1436966164596,-8.569447,4.68665,0.16998832
206,1436966164615,-8.479664,4.675876,0.15322891
207,1436966164638,-8.476671,4.6776714,0.14425065
208,1436966164655,-8.485649,4.646547,0.16639702
209,1436966164676,-8.496424,4.667496,0.1328782
210,1436966164698,-8.50181,4.675876,0.092176765
211,1436966164718,-8.509591,4.69084,0.08379706
212,1436966164738,-8.528147,4.695628,0.08319851
213,1436966164756,-8.513183,4.685453,0.08619126
214,1436966164777,-8.557475,4.675277,0.12569559
215,1436966164798,-8.510789,4.675876,0.11851298
216,1436966164818,-8.438364,4.7004166,0.08379706
217,1436966164838,-8.558673,4.6950297,0.12928689
218,1436966164856,-8.39886,4.7255554,0.10175357
219,1436966164875,-8.515577,4.748899,0.055066638
220,1436966164898,-8.72507,4.722563,0.13946225
221,1436966164918,-8.516774,4.672883,0.09696517
222,1436966164938,-8.395268,4.730344,0.10235212
223,1436966164955,-8.494029,4.7644615,0.091578215
224,1436966164977,-8.446145,4.731541,0.093972415
225,1436966164997,-8.428188,4.7339354,0.10295067
226,1436966165018,-8.432379,4.7339354,0.073023155
227,1436966165038,-8.4425535,4.7758336,0.02633622
228,1436966165055,-8.4647,4.789002,0.025737667
229,1436966165076,-8.516774,4.7818193,0.024540568
230,1436966165095,-8.53892,4.7483006,0.090979666
231,1436966165124,-8.401853,4.771045,0.07182605
232,1436966165141,-8.488642,4.757279,0.08738836
233,1436966165200,-8.467094,4.747702,0.110731825
234,1436966165201,-8.455722,4.741118,0.107140526
235,1436966165204,-8.467693,4.720767,0.0796072
236,1436966165226,-8.4647,4.748899,0.059855044
237,1436966165235,-8.494029,4.782418,0.05207389
238,1436966165255,-8.525154,4.720767,0.061052144
239,1436966165275,-8.491036,4.711789,0.074818805
240,1436966165296,-8.465898,4.710592,0.0688333
241,1436966165315,-8.461109,4.7070007,0.07182605
242,1436966165335,-8.565256,4.699818,0.10115502
243,1436966165355,-8.3312235,4.71957,0.095768064
244,1436966165376,-8.557475,4.747103,0.05626374
245,1436966165395,-8.677784,4.7500963,0.09876082
246,1436966165416,-8.407838,4.753089,0.06464344
247,1436966165438,-8.404246,4.7638626,0.05746084
248,1436966165458,-8.468291,4.7602715,0.04070143
249,1436966165475,-8.446744,4.7189717,0.06464344
250,1436966165496,-8.463503,4.723161,0.04189853
251,1436966165516,-8.494628,4.735731,0.031124622
252,1436966165582,-8.504803,4.7267528,0.045489833
253,1436966165583,-8.46889,4.735731,0.007182605
254,1436966165584,-8.595184,4.723161,0.049679685
255,1436966165595,-8.545505,4.7046065,0.06823475
256,1436966165615,-8.401853,4.7201686,0.08259996
257,1436966165635,-8.4826565,4.717176,0.055066638
258,1436966165655,-8.44016,4.7279496,0.035913024
259,1436966165675,-8.47727,4.7758336,-0.014963761
260,1436966165696,-8.505402,4.8225207,-0.026934769
261,1436966165715,-8.497022,4.778228,0.0035913025
262,1436966165735,-8.499416,4.733337,0.027533319
263,1436966165755,-8.491635,4.687847,0.0712275
264,1436966165775,-8.520366,4.6351743,0.15203181
265,1436966165796,-8.468291,4.6022544,0.14185645
266,1436966165815,-8.556877,4.630985,0.16579847
267,1436966165837,-8.454525,4.631583,0.11671733
268,1436966165855,-8.376713,4.7339354,0.076614454
269,1436966165875,-8.751406,4.706402,0.10295067
270,1436966165896,-8.545505,4.7285485,0.13108255
271,1436966165915,-8.344392,4.743512,0.077213004
272,1436966165935,-8.450933,4.747103,0.089184016
273,1436966165955,-8.439561,4.722563,0.092176765
274,1436966165975,-8.397064,4.6621094,0.091578215
275,1436966165995,-8.482059,4.59567,0.0712275
276,1436966166015,-8.539519,4.549582,0.11611878
277,1436966166041,-8.494628,4.5076833,0.12449849
278,1436966166055,-8.737639,4.4274774,0.13108255
279,1436966166075,-8.841787,4.3700166,0.17836803
280,1436966166095,-8.711303,4.3634324,0.16998832
281,1436966166115,-8.782531,4.325125,0.1352724
282,1436966166135,-8.856153,4.307169,0.18076223
283,1436966166155,-8.922591,4.2161894,0.25857377
284,1436966166175,-8.820838,4.120421,0.29269117
285,1436966166195,-8.717288,4.138976,0.26396075
286,1436966166215,-8.567052,4.11683,0.2669535
287,1436966166235,-8.613141,4.098873,0.26156655
288,1436966166255,-8.731653,4.039018,0.38367084
289,1436966166275,-8.915408,3.9193082,0.46208093
290,1436966166295,-8.957307,3.8061821,0.5883751
291,1436966166315,-9.005191,3.726575,0.694917
292,1436966166335,-8.86513,3.5930982,0.7505822
293,1436966166355,-8.739435,3.5272577,0.7649474
294,1436966166375,-8.826224,3.4554317,0.8086416
295,1436966166395,-8.781932,3.4063504,0.75477207
296,1436966166415,-8.722076,3.490746,0.6619968
297,1436966166435,-8.81964,3.5410242,0.59615624
298,1436966166455,-8.789114,3.518878,0.5793968
299,1436966166475,-8.359954,3.496133,0.50876784
300,1436966166495,-8.057686,3.4931402,0.3597288
301,1436966166515,-8.159439,3.630807,0.10235212
302,1436966166539,-8.363545,3.9211037,-0.035913024
303,1436966166555,-8.826823,4.162918,-0.21188685
304,1436966166576,-9.054273,4.3646297,-0.29568392
305,1436966166596,-8.907029,4.5501804,-0.5255273
306,1436966166615,-8.801684,4.753089,-0.7266402
307,1436966166635,-9.020155,4.7058034,-0.84575176
308,1436966166655,-9.01417,4.6686935,-0.9487024
309,1436966166675,-8.807071,4.537012,-1.055843
310,1436966166695,-8.731653,4.288614,-1.1599907
311,1436966166715,-8.702923,4.03004,-1.2605472
312,1436966166736,-9.00579,3.731962,-1.2844892
313,1436966166756,-9.217078,3.41892,-1.271321
314,1436966166781,-8.963891,3.1022868,-1.1755531
315,1436966166798,-8.709507,2.8736405,-1.1204864
316,1436966166817,-8.461707,2.7760768,-1.1055226
317,1436966166837,-8.154053,2.610877,-1.0893618
318,1436966166858,-8.237251,2.5731683,-1.0265139
319,1436966166878,-8.227076,2.5773582,-1.1079168
320,1436966166899,-8.081029,2.907758,-1.5161282
321,1436966166920,-8.0606785,3.4985273,-1.9440918
322,1436966166941,-8.186973,3.638588,-2.022502
323,1436966166960,-9.354146,3.4225113,-1.7262194
324,1436966166980,-10.860099,2.9706059,-1.3850456
325,1436966166997,-11.184513,2.9861681,-1.3293805
326,1436966167017,-11.076775,3.0466216,-1.3210008
327,1436966167037,-10.7751045,3.0107086,-1.2078748
328,1436966167066,-11.657368,2.8993783,-0.57640404
329,1436966167077,-12.680889,3.0262709,0.0077811554
330,1436966167097,-12.412739,2.959832,0.56682724
331,1436966167123,-10.040684,2.6156654,0.6428431
332,1436966167159,-7.7129207,3.4494462,1.0923545
333,1436966167160,-8.438364,4.2221746,1.7118542
334,1436966167225,-8.3390045,4.2263646,2.2870612
335,1436966167243,-6.159084,3.7421372,2.1817162
336,1436966167244,-5.397129,3.1028855,2.5737667
337,1436966167245,-8.040328,2.871845,3.110068
338,1436966167267,-10.38066,3.09271,3.4231098
339,1436966167282,-11.664551,2.7072437,3.8217444
340,1436966167317,-13.245921,1.7286136,4.1796775
341,1436966167318,-15.008054,1.0839748,4.0132804
342,1436966167337,-16.477495,0.5919664,3.5649664
343,1436966167363,-17.78413,0.3633201,3.4171243
344,1436966167377,-18.475456,-0.030526072,3.364452
345,1436966167401,-16.911444,-0.5482722,3.469797
346,1436966167420,-13.305178,-0.7326257,3.3842041
347,1436966167440,-9.501988,-0.8714894,2.983774
348,1436966167459,-5.955577,-0.6973112,2.1739352
349,1436966167480,-3.481768,-0.33638534,1.4089876
350,1436966167500,-2.0398598,-0.10295067,0.44592008
351,1436966167519,-0.9995792,-0.09636662,-0.073621705
352,1436966167538,-0.55365914,-0.18495208,-0.3776853
353,1436966167558,-0.6344634,-0.11432313,-0.5351041
354,1436966167579,-0.83497787,-0.03232172,-0.54168814
355,1436966167600,-0.30885202,-0.089782566,-0.504578
356,1436966167617,0.12509704,-0.030526072,-0.49559975
357,1436966167638,-4.771644,0.25677812,1.5466543
358,1436966167660,-15.386337,-1.9249382,1.7717092
359,1436966167679,-14.705187,-0.19752164,0.5351041
360,1436966167697,-13.033436,0.2765303,2.8335378
361,1436966167718,-19.339764,-3.153762,3.2620997
362,1436966167737,-19.60911,-2.6821043,2.734777
363,1436966167759,-19.60911,-1.6759412,2.3343468
364,1436966167779,-16.548721,-1.4514848,0.93732995
365,1436966167800,-15.541362,-1.4688427,0.4417302
366,1436966167820,-14.969148,-1.2204443,0.32920274
367,1436966167838,-11.971607,-0.8122329,0.110133275
368,1436966167857,-7.9744873,-0.45669398,0.3645172
369,1436966167877,-4.333505,-0.16280572,0.17776948
370,1436966167900,-0.24241292,0.4225766,-0.49919105
371,1436966167918,2.8778305,0.3633201,-0.56203884
372,1436966167969,1.6292542,-0.3681085,0.5255273
373,1436966167981,-1.7699136,-0.3286042,0.6434417
374,1436966167982,-3.0005333,0.13467385,0.878672
375,1436966167998,-1.7962499,0.6290765,1.2557588
376,1436966168022,-2.1697452,0.55126494,1.8166006
377,1436966168037,-8.614936,-0.20649989,3.21661
378,1436966168058,-14.863803,-0.9451111,3.7780502
379,1436966168080,-12.646772,-0.008978256,3.4141316
380,1436966168097,-16.467918,-1.9123687,3.0759506
381,1436966168120,-19.60911,-2.7275944,4.3568487
382,1436966168140,-19.60911,-3.4320881,5.093664
383,1436966168159,-19.60911,-3.0885203,6.238691
384,1436966168180,-17.122133,-2.2284033,5.781997
385,1436966168201,-14.074913,-1.6938977,5.539584
386,1436966168221,-9.350554,-0.9804256,4.338892
387,1436966168238,-4.5872903,-0.47165772,3.139397
388,1436966168260,-2.1021092,-0.47225627,1.520318
389,1436966168281,-1.3221979,-0.26635495,0.24241292
390,1436966168301,-1.1887212,0.07182605,0.34356794
391,1436966168320,-2.3798366,-0.28491,0.6865373
392,1436966168340,-2.7138276,-0.3417723,0.47465047
393,1436966168358,-1.0708067,-0.18195933,0.219668
394,1436966168378,0.9175778,-0.19991584,-0.05686229
395,1436966168531,2.533664,-0.28431144,0.03172317
396,1436966168532,0.2861071,-0.46806642,0.6332663
397,1436966168533,-9.241618,-1.1198878,4.1078515
398,1436966168534,-19.394829,-3.6164417,2.6246436
399,1436966168535,-12.221801,-0.5967548,2.178125
400,1436966168536,-11.337742,-0.6218939,3.8564603
401,1436966168537,-19.60911,-4.4783545,4.2784386
402,1436966168587,-19.60911,-3.657143,4.072537
403,1436966168588,-19.60911,-3.5978866,2.9418752
404,1436966168589,-18.025944,-2.4809916,1.2952632
405,1436966168601,-14.1425495,-1.8249803,0.108936176
406,1436966168620,-10.643424,-1.0648212,-0.39444473
407,1436966168640,-8.034941,-0.94092125,0.017357962
408,1436966168684,-6.4386067,-1.0474633,0.23523031
409,1436966168685,-3.7978024,-0.44232875,-0.3585317
410,1436966168700,0.5734113,0.20470424,-1.0163386
