id,attr_time,attr_x,attr_y,attr_z
1,1436964110412,0.59615624,9.592968,0.27832595
2,1436964110433,0.7930793,9.593566,-0.1592144
3,1436964110453,0.7062895,9.883265,0.14425065
4,1436964110474,0.6356605,9.724648,0.24720132
5,1436964110495,0.82001406,9.64983,0.11372458
6,1436964110516,0.7086837,9.653421,0.1933318
7,1436964110535,0.5919664,9.623494,0.18435353
8,1436964110552,0.65421563,9.656414,0.17058687
9,1436964110572,0.7457938,9.800066,0.18076223
10,1436964110594,0.7469909,9.74859,0.19512744
11,1436964110612,0.7182605,9.690532,0.1352724
12,1436964110632,0.7009025,9.668983,0.26635495
13,1436964110652,0.6943185,9.703101,0.28790274
14,1436964110672,0.7074866,9.690532,0.1933318
15,1436964110692,0.7320272,9.735423,0.1340753
16,1436964110712,0.6979098,9.739613,0.17956513
17,1436964110732,0.7236475,9.742605,0.2112883
18,1436964110752,0.7218518,9.673772,0.19572599
19,1436964110772,0.7541735,9.66659,0.20649989
20,1436964110792,0.7445967,9.752781,0.28790274
21,1436964110812,0.7302315,9.639056,0.06344634
22,1436964110832,0.7942764,9.7084875,0.032920275
23,1436964110852,0.7272388,9.743204,0.3585317
24,1436964110872,0.7338228,9.668983,0.17776948
25,1436964110892,0.89543146,9.65821,-0.055066638
26,1436964110912,0.8002619,9.845556,0.18136078
27,1436964110932,0.6619968,9.771336,0.3172317
28,1436964110952,0.82599956,9.65821,0.14903906
29,1436964110972,0.80445176,9.593566,0.12868834
30,1436964110992,0.7254431,9.659407,0.14784196
31,1436964111012,0.74519527,9.710283,0.219668
32,1436964111032,0.82480246,9.792884,0.17118542
33,1436964111052,0.82719666,9.721058,0.15143326
34,1436964111072,0.81881696,9.673772,0.21906945
35,1436964111092,0.7493851,9.722255,0.23762453
36,1436964111112,0.75477207,9.689334,0.24181437
37,1436964111132,0.76554596,9.710882,0.22685061
38,1436964111152,0.8194155,9.661202,0.23942018
39,1436964111172,0.81283146,9.633071,0.25677812
40,1436964111192,0.84455466,9.68275,0.25438392
41,1436964111212,0.83617496,9.6845455,0.26156655
42,1436964111233,0.8487445,9.68694,0.30047232
43,1436964111252,0.8319851,9.727641,0.38845924
44,1436964111274,0.8391677,9.670779,0.12270284
45,1436964111292,0.8523358,9.737218,0.06464344
46,1436964111317,0.7918822,9.759365,0.3477578
47,1436964111332,0.74399817,9.693524,0.25498247
48,1436964111352,0.9020155,9.654618,0.06823475
49,1436964111372,0.7858967,9.755774,0.25917232
50,1436964111392,0.7032967,9.731832,0.3890578
51,1436964111412,0.87807345,9.712678,0.20590134
52,1436964111432,0.89902276,9.674969,0.107140526
53,1436964111452,0.80445176,9.674969,0.22685061
54,1436964111472,0.79966336,9.682152,0.24361002
55,1436964111505,0.87927055,9.78989,0.2160767
56,1436964111512,0.8900445,9.751583,0.23044191
57,1436964111532,0.86370826,9.701305,0.25498247
58,1436964111552,0.8158242,9.669582,0.27712885
59,1436964111572,0.76075757,9.618706,0.33877954
60,1436964111596,0.7338228,9.706693,0.3657143
61,1436964111612,0.74878657,9.713276,0.19812019
62,1436964111632,0.7637503,9.674371,0.21787235
63,1436964111652,0.7577648,9.662399,0.2124854
64,1436964111672,0.7410054,9.64983,0.219668
65,1436964111692,0.74878657,9.665991,0.27353755
66,1436964111712,0.7649474,9.681553,0.3669114
67,1436964111732,0.8062474,9.627085,0.12210429
68,1436964111752,0.89423436,9.703101,0.007182605
69,1436964111772,0.8265981,9.763555,0.3842694
70,1436964111792,0.74519527,9.757569,0.24779987
71,1436964111812,0.87807345,9.673772,-0.008379706
72,1436964111832,0.7715315,9.757569,0.27593175
73,1436964111852,0.682946,9.734225,0.3752911
74,1436964111872,0.8451532,9.693524,0.1352724
75,1436964111892,0.8002619,9.651626,0.108936176
76,1436964111912,0.6925228,9.68275,0.22864626
77,1436964111932,0.7164649,9.727641,0.27593175
78,1436964111952,0.7715315,9.809045,0.24061728
79,1436964111972,0.7386112,9.809045,0.28909984
80,1436964111992,0.6302736,9.743204,0.35434186
81,1436964112012,0.5494693,9.681553,0.2693477
82,1436964112032,0.58538234,9.6288805,0.27593175
83,1436964112052,0.85293436,9.713875,0.3657143
84,1436964112072,0.9451111,9.888652,0.4285621
85,1436964112092,0.91099375,10.035895,0.670975
86,1436964112113,0.79726917,9.947908,0.9864111
87,1436964112132,0.7751228,9.569624,1.0779893
88,1436964112153,0.997185,9.2308445,0.9959879
89,1436964112173,1.1839328,9.057265,0.99658644
90,1436964112193,1.13964,9.00579,0.90021986
91,1436964112213,1.2000936,9.264363,0.60812724
92,1436964112233,0.99060094,9.77792,0.88046765
93,1436964112253,0.65780693,10.031705,1.1282675
94,1436964112273,0.56982,9.853935,0.97623575
95,1436964112293,0.32561144,9.14585,1.2671312
96,1436964112313,0.30286652,8.313866,1.1216835
97,1436964112333,0.3657143,7.7081323,0.6464345
98,1436964112353,0.24959552,7.422025,0.2669535
99,1436964112373,-0.25258827,7.547721,-0.35254622
100,1436964112393,-0.55725044,8.378509,-0.94331545
101,1436964112413,-0.4309563,9.862914,-0.9660604
102,1436964112433,-0.4345476,11.460445,-0.39504328
103,1436964112453,-0.29209262,12.442068,0.51595044
104,1436964112473,0.4261679,12.571355,0.6823475
105,1436964112493,0.90500826,12.002731,0.74399817
106,1436964112513,0.29987377,10.990582,1.5699978
107,1436964112533,-0.010773907,10.071808,1.1887212
108,1436964112553,0.16938977,9.129689,0.55725044
109,1436964112573,0.46327803,8.281544,0.10474633
110,1436964112594,0.4818331,8.04751,0.023343466
111,1436964112613,0.3681085,8.1480665,0.07062895
112,1436964112633,0.338181,8.483853,-0.051475335
113,1436964112653,0.3196259,9.083601,-0.25737667
114,1436964112673,0.51116204,9.589376,-0.61052144
115,1436964112693,0.48961425,9.91798,-0.4938041
116,1436964112713,0.14844051,9.672575,-0.10414778
117,1436964112733,-0.0664391,9.781511,-0.4938041
118,1436964112753,-0.15861586,10.272921,-0.29448682
119,1436964112773,-0.62249243,10.499771,0.2148796
120,1436964112793,-0.90381116,10.157999,0.15083471
121,1436964112813,-0.65900403,9.60853,-0.18435353
122,1436964112833,-0.29688102,9.258378,-0.20051439
123,1436964112853,-0.045489833,9.516952,-0.108337626
124,1436964112873,-0.108936176,10.259154,-0.5189432
125,1436964112893,-0.26515785,11.35929,-1.3880384
126,1436964112913,0.4842273,12.436681,-1.8357542
127,1436964112933,1.9901801,13.476363,-1.5466543
128,1436964112953,2.6791117,13.96059,-1.1354501
129,1436964112973,3.560178,13.011888,-1.2497733
130,1436964112993,4.402937,11.661558,-1.5598224
131,1436964113013,4.51726,10.0664215,-1.13964
132,1436964113033,4.19105,8.479664,-0.54168814
133,1436964113053,4.5364137,7.089231,-0.39624038
134,1436964113073,4.933253,6.4164605,-0.7751228
135,1436964113093,4.551976,7.0581064,-1.0564415
136,1436964113113,3.2231941,8.440758,-0.2896984
137,1436964113133,2.4708161,9.465476,-0.46327803
138,1436964113157,2.1212628,9.897031,-0.7942764
139,1436964113178,1.5801731,9.509769,-0.47644615
140,1436964113195,1.7477672,8.809465,0.10474633
141,1436964113217,1.869273,8.291719,1.3461399
142,1436964113234,1.5221137,7.4465656,1.9057846
143,1436964113255,1.2156559,6.687604,1.5077485
144,1436964113275,1.0133458,6.743269,0.5446809
145,1436964113294,0.7990648,7.3968863,-0.01616086
146,1436964113317,0.84694886,8.223484,-0.25677812
147,1436964113340,1.2629414,8.97287,-0.19692309
148,1436964113357,1.4395138,9.059061,0.32142156
149,1436964113378,1.3634979,8.752603,0.57161564
150,1436964113394,1.0319009,8.365341,0.64703304
151,1436964113414,0.8475474,8.512584,0.05865794
152,1436964113436,1.1761516,9.351153,-0.12749124
153,1436964113458,1.7884687,10.448297,0.28311434
154,1436964113479,2.6001031,11.486781,1.3072342
155,1436964113541,2.6611552,11.982381,2.0805612
156,1436964113542,1.5610195,11.7064495,2.6084828
157,1436964113543,0.427365,11.608287,2.1080947
158,1436964113571,0.39025488,12.333132,1.2312182
159,1436964113576,1.0911574,13.632585,-0.3453636
160,1436964113598,1.9524715,14.1629,-2.2469583
161,1436964113616,2.2146366,12.564172,-2.8449101
162,1436964113635,0.8499416,9.109938,-1.5747862
163,1436964113668,-0.08080431,7.603985,-1.9782091
164,1436964113688,-0.5315128,7.417237,-3.4231098
165,1436964113696,-0.79128367,8.153454,-4.293402
166,1436964113716,-0.23822308,9.561843,-3.3542767
167,1436964113736,1.1198878,11.1073,-1.3455414
168,1436964113757,2.2774844,11.386824,0.15203181
169,1436964113780,2.6264393,10.11251,0.24121583
170,1436964113800,2.2038627,8.818443,0.21906945
171,1436964113816,1.5568297,7.6351094,0.12569559
172,1436964113839,1.0672154,6.654085,-0.5614403
173,1436964113856,0.7368156,6.249465,-0.8924387
174,1436964113878,0.64942724,6.667852,-0.60573304
175,1436964113900,0.6679823,7.2107368,-0.0005985504
176,1436964113918,0.9295488,7.5052238,0.17357962
177,1436964113938,0.9187749,7.827842,-0.091578215
178,1436964113960,0.29807812,8.356961,-0.320823
179,1436964113978,-0.27832595,9.011177,-0.7398083
180,1436964113997,-0.24301147,9.813833,-1.0869676
181,1436964114017,-0.038307227,11.179127,-1.2880806
182,1436964114036,-0.39863458,12.3834095,-1.0247183
183,1436964114060,-1.0450691,12.797606,-0.3585317
184,1436964114081,-1.0809821,12.496535,0.0047884034
185,1436964114123,0.31902736,13.185468,-0.026934769
186,1436964114124,1.9111716,14.168885,0.15981296
187,1436964114137,2.4361002,14.153323,-0.6733692
188,1436964114158,1.8728642,12.546814,-0.31663316
189,1436964114181,1.7818847,9.824607,-0.05267244
190,1436964114212,2.6390088,8.265982,-0.26994625
191,1436964114263,4.0677485,7.5094137,-0.65421563
192,1436964114289,4.7081976,7.879916,-0.46686932
193,1436964114290,4.2036195,8.703522,0.49679685
194,1436964114291,3.0969,9.710882,1.0205284
195,1436964114301,1.9841946,10.346542,0.18974048
196,1436964114327,0.7918822,9.884461,-0.46267948
197,1436964114340,0.24660277,8.93935,-0.24899697
198,1436964114357,0.2657564,8.028955,0.2124854
199,1436964114378,0.5674258,7.482479,0.40282443
200,1436964114406,0.75237787,7.195773,0.56982
201,1436964114418,0.7733272,7.2245035,0.39923313
202,1436964114437,0.34117374,7.5566993,0.29209262
203,1436964114508,-0.01316811,7.860164,0.6715736
204,1436964114509,-0.0017956513,8.194156,0.9840169
205,1436964114510,0.18315643,7.964312,1.1360487
206,1436964114516,0.21787235,7.3418193,1.2515689
207,1436964114536,-0.045489833,6.8103065,1.1659763
208,1436964114556,-0.02932897,8.368334,0.5470751
209,1436964114577,0.35194764,10.775703,0.7529764
210,1436964114596,0.87328506,13.275848,2.0602105
211,1436964114616,1.5059528,13.908516,3.0789435
212,1436964114636,1.3928268,12.154165,2.681506
213,1436964114656,0.36631286,11.750742,2.456451
214,1436964114676,0.1933318,12.457031,1.4598645
215,1436964114696,0.2705448,12.80479,-0.60214174
216,1436964114716,0.29867667,13.055582,-1.6346412
217,1436964114736,-0.019752163,11.731588,-1.5089456
218,1436964114756,-0.24420857,8.857947,-0.91219085
219,1436964114776,-0.04070143,8.183381,-1.7998412
220,1436964114809,0.24600422,8.655039,-2.9472623
221,1436964114817,0.45549688,10.074203,-3.1435869
222,1436964114844,1.0851719,11.76391,-1.7980455
223,1436964114857,1.666963,12.444462,0.5363012
224,1436964114881,1.6130934,11.167155,2.1481974
225,1436964114897,1.1935096,9.120711,1.5640123
226,1436964114916,0.39983168,7.5806413,0.7320272
227,1436964114935,-0.077213004,6.443994,0.40701428
228,1436964114955,-0.11192893,5.8909335,-0.18435353
229,1436964114975,0.10235212,5.7059813,-0.87927055
230,1436964114996,0.5057751,6.2141504,-0.75836337
231,1436964115015,0.60214174,6.9677253,-0.31064767
232,1436964115040,0.6003461,7.501034,0.6039374
233,1436964115055,0.3393781,8.252813,1.0001777
234,1436964115075,-0.19273324,8.94773,0.9564836
235,1436964115096,-0.3866636,9.463082,0.21667525
236,1436964115115,-0.20829555,10.655395,-0.8870517
237,1436964115135,-0.25258827,12.409746,-1.1210849
238,1436964115155,-1.0654198,13.65533,0.3549404
239,1436964115175,-2.0458453,13.583504,1.4305356
240,1436964115195,-1.1468226,13.047801,-0.533907
241,1436964115215,1.0911574,14.423868,-0.28550854
242,1436964115236,2.8550856,14.615404,0.81283146
243,1436964115255,2.9604304,12.183494,1.3467385
244,1436964115276,2.885013,8.973468,0.5267244
245,1436964115296,3.9013517,7.489063,-0.7577648
246,1436964115316,5.4922986,8.040926,-1.5652094
247,1436964115336,5.361216,9.96347,-0.7320272
248,1436964115356,3.364452,11.101913,0.943914
249,1436964115376,1.5125369,11.2844715,1.1665748
250,1436964115396,0.29029694,10.618284,-0.024540568
251,1436964115416,-0.19632454,9.123704,0.02633622
252,1436964115436,-0.10115502,7.9942393,0.5303157
253,1436964115456,-0.01436521,7.2723875,0.26156655
254,1436964115476,0.0688333,6.706159,-0.2765303
255,1436964115496,-0.10414778,6.487688,-0.15682021
256,1436964115516,-0.1376666,6.723517,0.1376666
257,1436964115536,0.1364695,7.019799,0.5327099
258,1436964115556,0.40102878,7.1425023,0.9427169
259,1436964115576,0.29209262,6.9826894,0.96665895
260,1436964115596,0.46267948,7.0186024,0.96905315
261,1436964115616,0.7212533,7.4896617,1.1773487
262,1436964115636,0.87208796,8.341399,1.4622587
263,1436964115656,1.1270704,10.9822035,1.5993267
264,1436964115676,0.9576807,13.066356,2.882619
265,1436964115696,0.5506664,14.003686,4.1904516
266,1436964115716,0.22625206,12.474389,3.5242648
267,1436964115736,-0.40402153,11.328165,2.6994624
268,1436964115756,-0.7230489,11.574768,1.757344
269,1436964115776,-0.3393781,12.239159,0.30585927
270,1436964115796,0.39085343,13.566145,-0.56323594
271,1436964115816,0.45310268,12.637196,-0.7344214
272,1436964115836,0.17537527,10.1161,-1.027711
273,1436964115856,-0.06703765,8.820239,-1.7106571
274,1436964115876,-0.25917232,9.094376,-1.9129672
275,1436964115896,-0.3549404,9.655815,-0.8972271
276,1436964115916,0.15442601,10.644621,-0.8475474
277,1436964115936,1.283292,11.015123,-0.22685061
278,1436964115956,1.8890251,10.435727,1.4820108
279,1436964115976,1.525705,9.224859,1.9309237
280,1436964115996,0.83378077,7.7105265,1.1599907
281,1436964116016,0.30286652,6.4709287,0.35913026
282,1436964116036,-0.13108255,5.5503583,-0.4914099
283,1436964116056,-0.2717419,5.3618145,-0.97264445
284,1436964116076,-0.038307227,6.0238113,-1.1168951
285,1436964116096,0.28311434,7.28795,0.20590134
286,1436964116116,0.2633622,7.9708962,0.9307459
287,1436964116137,0.20290859,8.762778,0.85772276
288,1436964116156,-0.015562311,9.413403,0.3645172
289,1436964116177,-0.19393034,9.958682,-0.027533319
290,1436964116197,-0.63087213,11.080964,0.34596214
291,1436964116217,-1.6711528,12.289437,1.4694413
292,1436964116237,-2.710835,12.989142,1.6382325
293,1436964116257,-2.6551697,12.631808,0.9151836
294,1436964116277,-1.2826935,11.945869,0.8535329
295,1436964116297,0.40402153,12.620436,1.4065934
296,1436964116317,2.348712,14.870387,1.1701661
297,1436964116337,2.2852654,13.93186,1.4155718
298,1436964116357,1.7711107,11.123461,1.4490906
299,1436964116377,1.8740613,8.345589,0.80445176
300,1436964116397,3.4925418,7.2819643,-0.16819267
301,1436964116417,5.089474,8.224083,-0.27712885
302,1436964116437,5.016451,9.691729,1.2431892
303,1436964116457,3.606865,10.630256,1.6005238
304,1436964116477,2.2547395,11.068395,0.89184016
305,1436964116497,0.99778354,10.505158,0.35793316
306,1436964116517,0.065242,9.244612,0.2885013
307,1436964116537,-0.21188685,7.6213427,0.42676646
308,1436964116557,0.1388637,6.7342906,0.4830302
309,1436964116577,0.362123,6.1183825,0.6194997
310,1436964116597,0.30286652,5.9759274,0.9696517
311,1436964116617,0.109534726,6.1207767,1.5029601
312,1436964116637,0.08319851,6.202778,1.738789
313,1436964116657,0.33638534,6.277597,1.5209166
314,1436964116677,0.9139865,6.8282633,0.9840169
315,1436964116699,1.5861586,7.744644,1.0127473
316,1436964116717,2.0614076,8.324639,1.7687165
317,1436964116737,1.9165585,8.981848,2.2337902
318,1436964116757,1.2533646,10.070012,2.2900538
319,1436964116777,-0.19153613,12.346299,2.8449101
320,1436964116797,-0.45908818,13.189058,3.3602622
321,1436964116817,0.23642741,12.913726,2.7222073
322,1436964116837,0.6452374,13.050195,1.5753847
323,1436964116857,1.271321,13.448231,0.7613561
324,1436964116877,1.0199299,13.374011,-0.61171854
325,1436964116897,0.30645782,12.978369,-1.0127473
326,1436964116917,-0.3854665,11.009138,-0.45190558
327,1436964116937,-0.45370123,9.168595,-0.7954735
328,1436964116957,0.13467385,8.805874,-1.9829975
329,1436964116977,0.41958386,9.254189,-2.344522
330,1436964116997,0.5626374,11.631032,-1.1504139
331,1436964117017,1.4161704,12.955624,-0.15861586
332,1436964117037,1.6430209,11.889007,1.5436616
333,1436964117057,1.0618285,9.287108,2.1535845
334,1436964117077,0.1388637,7.21373,1.5077485
335,1436964117097,-0.48243165,5.872977,0.83378077
336,1436964117117,-0.7541735,5.069722,0.37948096
337,1436964117137,-0.6218939,4.951209,-0.1376666
338,1436964117157,-0.23104046,5.507861,-0.46567222
339,1436964117177,0.16280572,6.4631476,-0.32022446
340,1436964117197,0.3866636,7.331644,0.18375498
341,1436964117217,0.6434417,7.5974007,0.7206547
342,1436964117237,0.6015432,7.813477,0.19393034
343,1436964117258,0.46267948,9.0554695,-0.11851298
344,1436964117277,-0.28550854,11.497555,0.82779527
345,1436964117297,-1.4981717,13.891757,1.762731
346,1436964117317,-2.0278888,14.604032,1.0229226
347,1436964117338,-1.7357962,13.211205,0.29269117
348,1436964117357,-1.0923545,12.814964,1.1887212
349,1436964117377,0.049679685,14.443621,2.0775685
350,1436964117398,0.75836337,15.424046,2.0093338
351,1436964117418,0.48961425,13.912706,0.7733272
352,1436964117438,1.5412674,9.964667,0.76554596
353,1436964117458,3.342904,7.5985975,0.8714894
354,1436964117478,5.058948,6.381745,0.08798691
355,1436964117498,6.147113,6.92044,-0.39324763
356,1436964117518,4.8219223,8.678383,1.0049661
357,1436964117538,2.1110873,10.472239,2.255338
358,1436964117558,1.2042835,11.26412,0.7074866
359,1436964117578,1.2282255,10.842741,-1.2246342
360,1436964117598,1.1988965,9.820416,-0.96067345
361,1436964117618,1.1085154,8.798093,0.58538234
362,1436964117638,1.01574,7.6847887,1.5939398
363,1436964117658,1.0001777,5.8083334,1.0761937
364,1436964117678,0.8559271,5.0781016,0.760159
365,1436964117698,0.56982,5.1038394,0.5686229
366,1436964117718,0.31663316,5.8125234,0.033518825
367,1436964117738,0.20410569,6.7983356,0.41838676
368,1436964117758,0.15023616,7.6841903,0.64463884
369,1436964117778,0.17597382,8.033744,0.35434186
370,1436964117798,0.35553896,8.22528,0.17836803
371,1436964117818,0.6572084,9.333796,0.5303157
372,1436964117838,0.97503865,11.040861,1.8064252
373,1436964117858,1.2312182,12.450447,3.4153287
374,1436964117878,1.1061212,13.32912,3.0561984
375,1436964117898,0.5482722,12.248137,2.2421699
376,1436964117918,-0.3764882,11.486182,1.846528
377,1436964117938,-0.79726917,11.815984,0.108936176
378,1436964117958,-0.37948096,12.66413,-1.4706384
379,1436964117978,0.16101007,13.6170225,-1.9602526
380,1436964117998,-0.13946225,13.096283,-2.3181858
381,1436964118018,-0.29867667,11.193492,-2.3983915
382,1436964118041,-0.045489833,9.308058,-2.4486697
383,1436964118064,-0.04189853,8.715493,-2.2786815
384,1436964118084,-0.031124622,9.163807,-2.5025394
385,1436964118099,0.20590134,10.281899,-2.006341
386,1436964118124,1.1354501,11.742362,0.10474633
387,1436964118143,1.323395,11.182119,0.80325466
388,1436964118163,0.9876082,9.70789,0.7302315
389,1436964118183,0.61291564,7.74225,0.075417355
390,1436964118204,0.57161564,6.133346,0.013766659
391,1436964118219,0.3274071,4.8165355,-0.110133275
392,1436964118242,0.2669535,4.3161473,-0.6817489
393,1436964118262,0.45190558,5.279215,-0.7038953
394,1436964118279,0.33877954,6.7588315,0.04070143
395,1436964118304,0.032920275,7.879916,0.3537433
396,1436964118324,-0.31064767,8.583213,0.30945057
397,1436964118342,-1.1647792,8.971074,-0.20470424
398,1436964118362,-1.4748282,9.201516,-0.7074866
399,1436964118390,-1.7675194,10.218452,-0.7206547
400,1436964118405,-2.167351,12.033856,-0.033518825
401,1436964118419,-2.2421699,13.656527,0.76554596
402,1436964118440,-1.5316905,13.752893,0.073621705
403,1436964118460,-0.3681085,13.61762,-0.10235212
404,1436964118481,0.50996494,15.157092,0.7942764
405,1436964118503,2.0482395,16.163855,-0.16699557
406,1436964118521,3.532046,13.766061,-1.8914193
407,1436964118543,3.0538042,9.800066,-1.4311341
408,1436964118564,3.550601,6.7588315,-0.6991069
409,1436964118584,4.4316673,7.103596,-1.3341689
410,1436964118604,3.916914,8.738237,-0.31004912
411,1436964118624,2.1751323,10.974422,1.5047557
