id,attr_time,attr_x,attr_y,attr_z
1,1436967792005,3.3135753,8.786121,2.1733365
2,1436967792024,3.264494,8.754398,2.167351
3,1436967792054,3.4201171,8.770559,1.6597804
4,1436967792063,3.5978866,8.860941,1.5640123
5,1436967792081,3.5093012,9.020155,2.0817583
6,1436967792109,3.4943373,8.995614,1.8974048
7,1436967792127,3.7343562,8.921394,1.7238252
8,1436967792146,3.709217,8.960898,2.0374656
9,1436967792162,3.567959,8.924985,2.309806
10,1436967792182,3.5793316,8.889671,2.2152352
11,1436967792252,3.6284127,8.835801,2.0213048
12,1436967792253,3.5883098,8.773552,1.9428947
13,1436967792254,3.441665,8.783728,2.0045455
14,1436967792261,3.3075895,8.823831,2.2008698
15,1436967792290,3.311181,8.944139,2.0590134
16,1436967792303,3.5368345,9.166202,1.8734628
17,1436967792323,3.506907,9.11712,2.1308396
18,1436967792343,3.292626,8.962694,2.3080103
19,1436967792363,3.2662897,8.911818,2.0937295
20,1436967792383,3.525462,8.991425,1.8315643
21,1436967792403,3.7714663,8.967483,1.8381484
22,1436967792422,3.8594532,8.826224,1.8818425
23,1436967792442,3.7840357,8.780136,1.9560628
24,1436967792463,3.6583402,8.820838,1.9494787
25,1436967792485,3.554791,8.92319,1.9919758
26,1436967792505,3.650559,8.843582,1.5688007
27,1436967792525,3.6966474,8.731055,1.5047557
28,1436967792545,3.3584664,8.752005,2.1679497
29,1436967792565,3.5350387,8.843582,1.4760253
30,1436967792585,3.7056258,8.922591,1.2030864
31,1436967792605,3.4344823,8.995614,1.7591397
32,1436967792626,3.2890346,8.92319,2.0697873
33,1436967792642,3.5464113,8.881889,1.8166006
34,1436967792666,3.8163576,8.780735,1.5286977
35,1436967792682,3.86484,8.678383,1.5215151
36,1436967792704,3.7325604,8.7538,1.6101006
37,1436967792722,3.530849,8.81964,1.8423382
38,1436967792746,3.6218286,8.865729,1.6603789
39,1436967792766,3.9384618,8.838196,1.7172412
40,1436967792786,3.776853,8.761581,1.8315643
41,1436967792805,3.702633,8.782531,1.7896658
42,1436967792823,3.8414967,8.9279785,1.6693572
43,1436967792843,4.0019083,9.012972,1.5729905
44,1436967792864,3.9923313,8.986037,1.7118542
45,1436967792884,3.8792052,8.924387,1.8183962
46,1436967792951,3.8109705,8.946533,1.8351556
47,1436967792952,3.8456864,8.935161,1.8842367
48,1436967792953,3.9067385,8.868123,1.7292122
49,1436967792966,3.9683893,8.866327,1.4634558
50,1436967792983,3.70383,8.871715,2.1278467
51,1436967793003,3.7116113,8.793902,1.7322049
52,1436967793022,3.9947255,8.760384,1.2605472
53,1436967793046,3.851672,8.78672,1.5508442
54,1436967793065,3.5248635,8.913014,1.8782512
55,1436967793082,3.70802,8.882488,1.6921021
56,1436967793102,3.9085343,8.890868,1.532289
57,1436967793125,3.8385038,8.828619,1.5771804
58,1436967793143,3.7475243,8.830415,1.7393875
59,1436967793162,3.7421372,8.866926,1.7603368
60,1436967793198,3.7427359,8.98484,1.9381063
61,1436967793202,3.863643,8.940548,1.7459716
62,1436967793222,3.7762547,8.868722,1.8596961
63,1436967793242,3.5936968,8.825027,1.9153614
64,1436967793262,3.5942953,8.86513,1.8046296
65,1436967793282,3.6948519,8.872911,1.7459716
66,1436967793302,3.6846764,8.862138,1.7669208
67,1436967793322,3.5110967,8.848371,1.797447
68,1436967793343,3.371036,8.850765,1.7830818
69,1436967793365,3.4129345,8.958505,1.5837644
70,1436967793383,3.4757824,9.027936,1.6525977
71,1436967793404,3.5272577,8.960898,1.5173253
72,1436967793424,3.5535939,8.933964,1.620276
73,1436967793444,3.3345244,8.881889,2.019509
74,1436967793462,3.6984432,8.920795,1.4119805
75,1436967793482,3.8546648,9.057863,1.3180081
76,1436967793502,3.425504,9.106945,1.9249382
77,1436967793524,3.3794158,9.01776,1.8956091
78,1436967793544,3.6409822,8.958505,1.5921441
79,1436967793563,3.6607344,8.847773,1.5358804
80,1436967793584,3.5051112,8.826823,1.6190789
81,1436967793603,3.4374752,8.911219,1.7142484
82,1436967793623,3.5380316,8.945934,1.8166006
83,1436967793666,3.5835214,8.977059,1.7878702
84,1436967793667,3.582923,8.916606,1.5861586
85,1436967793682,3.4452562,9.011775,1.7244238
86,1436967793702,3.3303347,9.053075,1.7531542
87,1436967793722,3.425504,9.014768,1.5969325
88,1436967793742,3.4272997,8.892065,1.6879122
89,1436967793763,3.3488896,8.746018,1.7381904
90,1436967793781,3.2704794,8.762179,1.614889
91,1436967793803,3.2932243,8.919599,1.5328877
92,1436967793826,3.6056678,9.177573,1.174356
93,1436967793846,3.7241807,9.070433,1.4191631
94,1436967793866,3.7481227,8.814254,1.1091139
95,1436967793885,3.4243069,8.900445,2.095525
96,1436967793903,3.4662056,8.845378,1.460463
97,1436967793926,3.769072,9.0016,1.0235212
98,1436967793946,3.4674027,9.1668,1.5568297
99,1436967793966,3.3159695,9.091382,1.7878702
100,1436967793985,3.6284127,8.972271,1.5646108
101,1436967794005,3.6673183,8.92738,1.4622587
102,1436967794024,3.445855,9.00579,1.4736311
103,1436967794045,3.3369186,9.009979,1.5292963
104,1436967794066,3.4195185,9.0081835,1.3718776
105,1436967794085,3.4374752,9.06744,1.572392
106,1436967794105,3.4494462,8.972271,1.5490485
107,1436967794126,3.526659,9.027337,1.4981717
108,1436967794146,3.459023,9.032125,1.5316905
109,1436967794166,3.5194764,9.063251,1.5358804
110,1436967794186,3.6224272,9.009979,1.5005659
111,1436967794205,3.6128504,8.919599,1.5125369
112,1436967794226,3.5913026,8.868722,1.4951789
113,1436967794243,3.620033,8.883087,1.5388732
114,1436967794264,3.6170402,8.851962,1.5969325
115,1436967794293,3.5218706,8.751406,1.8555063
116,1436967794364,3.4979286,8.724471,1.8746599
117,1436967794365,3.645172,8.9842415,1.4395138
118,1436967794366,3.5003228,9.185355,1.9620483
119,1436967794367,3.879804,8.983644,1.2844892
120,1436967794385,3.9073372,8.866327,1.163582
121,1436967794405,3.3530796,8.988432,1.6537948
122,1436967794424,3.3512838,9.155427,1.5077485
123,1436967794444,3.667917,9.1590185,1.388637
124,1436967794465,3.788824,8.938153,1.3012487
125,1436967794485,3.5224693,8.809465,1.4377182
126,1436967794505,3.4530375,8.834604,1.4000094
127,1436967794525,3.7469256,9.032125,1.1953052
128,1436967794545,3.816956,9.130887,1.2880806
129,1436967794565,3.7708676,8.932168,1.4502877
130,1436967794587,3.517681,8.908226,1.5179238
131,1436967794607,3.4572272,8.994417,1.5023615
132,1436967794627,3.513491,9.088988,1.4323312
133,1436967794644,3.5529952,9.106346,1.3928268
134,1436967794665,3.5242648,9.023148,1.3215994
135,1436967794687,3.5021186,8.901642,1.3227965
136,1436967794707,3.4925418,8.848371,1.4077905
137,1436967794727,3.602675,8.95611,1.4520833
138,1436967794746,3.6284127,9.024943,1.6412252
139,1436967794764,3.6924577,8.887277,0.9828198
140,1436967794787,3.6242228,8.928576,1.6675615
141,1436967794805,3.4985273,9.054273,1.4191631
142,1436967794825,3.8498764,8.955511,1.074398
143,1436967794844,3.6014779,8.9842415,1.3575124
144,1436967794867,3.389591,9.122507,1.5568297
145,1436967794888,3.6260185,9.160814,1.3628993
146,1436967794908,3.8115692,9.0476885,1.2617443
147,1436967794925,3.6541502,8.923788,1.3042414
148,1436967794944,3.532046,8.8806925,1.4143747
149,1436967794963,3.5607765,8.918402,1.3251907
150,1436967794986,3.5607765,9.0429,1.3970166
151,1436967795005,3.5751417,8.996213,1.4077905
152,1436967795111,3.6206315,8.998009,1.3443443
153,1436967795112,3.630807,9.016563,1.472434
154,1436967795113,3.6367924,8.9842415,1.4077905
155,1436967795114,3.6242228,8.952518,1.4568717
156,1436967795115,3.6074634,8.908226,1.4341269
157,1436967795124,3.6116533,8.938153,1.3299791
158,1436967795146,3.5733461,8.995614,1.3299791
159,1436967795164,3.5739446,9.004593,1.3748703
160,1436967795186,3.5889084,9.017162,1.4610616
161,1436967795204,3.6302083,8.882488,1.2551602
162,1436967795226,3.6846764,8.871715,1.1994951
163,1436967795247,3.4943373,8.946533,1.8908207
164,1436967795264,3.7852328,8.926183,1.1480197
165,1436967795285,3.879804,8.908825,0.9648633
166,1436967795306,3.5021186,9.094376,1.5652094
167,1436967795327,3.527856,9.15842,1.4047978
168,1436967795347,3.8564603,9.0794115,1.2886791
169,1436967795367,3.8367083,8.866926,1.2665327
170,1436967795387,3.6194344,8.781333,1.3605051
171,1436967795407,3.525462,8.857947,1.4359225
172,1436967795425,3.5954924,8.923788,1.3150153
173,1436967795447,3.6475663,9.036316,1.3311762
174,1436967795468,3.6768951,8.954913,1.4101849
175,1436967795485,3.6655228,8.975264,1.4616601
176,1436967795508,3.58412,8.959702,1.6077064
177,1436967795526,3.6104562,8.992023,1.3904326
178,1436967795546,3.705027,8.991425,1.2641385
179,1436967795566,3.714604,8.938153,1.2802993
180,1436967795585,3.6894648,8.893262,1.4616601
181,1436967795608,3.5739446,8.929175,1.555034
182,1436967795625,3.6062663,8.990826,1.3748703
183,1436967795646,3.6583402,9.02614,1.4047978
184,1436967795677,3.7732618,8.920795,1.110311
185,1436967795708,3.7229836,8.966286,1.6238673
186,1436967795709,3.5488055,9.028535,1.673547
187,1436967795725,3.942053,8.859145,1.1384429
188,1436967795745,3.750517,8.744822,1.2060791
189,1436967795798,3.4584243,8.978855,1.5969325
190,1436967795799,3.6194344,9.120112,1.38325
191,1436967795807,3.8510735,9.062652,1.3617022
192,1436967795825,3.726575,8.859145,1.4580688
193,1436967795845,3.4632127,8.780136,1.6011224
194,1436967795865,3.3734303,8.866926,1.4616601
195,1436967795885,3.482965,9.059659,1.4335283
196,1436967795907,3.606865,9.087791,1.4209588
197,1436967795926,3.7535098,9.010578,1.2443863
198,1436967795946,3.684078,8.995614,1.4772224
199,1436967795968,3.6236243,8.8884735,1.5077485
200,1436967795985,3.7271736,8.916606,1.4496891
201,1436967796035,3.7403417,8.887277,1.4143747
202,1436967796036,3.721188,8.851364,1.4431051
203,1436967796046,3.6900635,8.850166,1.484405
204,1436967796068,3.6685154,8.891466,1.5089456
205,1436967796088,3.5865142,8.93935,1.4431051
206,1436967796108,3.5811272,8.962095,1.4371196
207,1436967796128,3.685275,9.030331,1.067814
208,1436967796148,3.626617,9.072228,1.673547
209,1436967796168,3.5045128,9.019556,1.4652514
210,1436967796188,3.867833,8.77834,1.0588357
211,1436967796211,3.5823243,8.935161,1.4095862
212,1436967796228,3.4404678,9.14585,1.4927847
213,1436967796246,3.7259765,9.147048,1.3688848
214,1436967796266,3.8313212,8.970475,1.3317747
215,1436967796291,3.6739025,8.798093,1.4185646
216,1436967796306,3.6008794,8.796896,1.4748282
217,1436967796325,3.7247794,8.863934,1.3150153
218,1436967796345,3.7523127,9.011775,1.4083891
219,1436967796365,3.7582982,8.92319,1.412579
220,1436967796392,3.731962,8.953117,1.3760674
221,1436967796406,3.6272156,8.978256,1.5053543
222,1436967796426,3.6882677,8.987833,1.4317327
223,1436967796446,3.697246,8.93576,1.42455
224,1436967796470,3.6709096,8.913613,1.376666
225,1436967796545,3.6403837,8.917803,1.3521254
226,1436967796546,3.6206315,8.954913,1.401805
227,1436967796547,3.6457705,8.947132,1.335366
228,1436967796548,3.6996403,9.017162,1.3862427
229,1436967796567,3.7738605,8.904634,1.2018893
230,1436967796590,3.7654808,8.930372,1.3198037
231,1436967796605,3.5128925,8.908825,1.9967642
232,1436967796626,3.5290532,8.911818,1.6089035
233,1436967796646,3.863643,8.781932,1.0785879
234,1436967796667,3.4542346,8.941146,1.5765818
235,1436967796687,3.357868,9.090784,1.5574282
236,1436967796707,3.669114,9.116522,1.3090298
237,1436967796726,3.882198,8.971074,1.2246342
238,1436967796746,3.6493618,8.895058,1.6891093
239,1436967796766,3.341707,8.831013,1.4191631
240,1436967796786,3.3482912,8.902839,1.347337
241,1436967796807,3.6607344,8.978256,1.2808979
242,1436967796828,3.8259344,8.896853,1.5179238
243,1436967796850,3.8612487,8.857947,1.6765398
244,1436967796868,3.66672,8.851364,1.7328035
245,1436967796889,3.681085,8.955511,1.6777369
246,1436967796910,3.7343562,9.020155,1.567005
247,1436967796928,3.7792473,8.9758625,1.4682442
248,1436967796947,3.7116113,8.938752,1.4598645
249,1436967796970,3.6182373,8.917803,1.5813702
250,1436967796988,3.54282,8.91481,1.5466543
251,1436967797009,3.6002808,8.899846,1.5388732
252,1436967797030,3.7594953,8.822633,1.2629414
253,1436967797048,3.7511156,9.021951,1.4915876
254,1436967797068,3.5338416,8.938153,1.7357962
255,1436967797088,3.7313633,8.967483,1.4059949
256,1436967797106,3.8738184,8.929175,1.1174936
257,1436967797129,3.681085,8.987833,1.4664485
258,1436967797150,3.5511997,8.996812,1.6771383
259,1436967797168,3.7044287,8.948928,1.5035586
260,1436967797188,3.8355112,8.883685,1.435324
261,1436967797216,3.7786489,8.831612,1.4514848
262,1436967797271,3.7259765,8.831013,1.5179238
263,1436967797272,3.655946,8.914211,1.572392
264,1436967797273,3.7541082,8.926183,1.4347254
265,1436967797294,3.870227,8.89805,1.4700398
266,1436967797306,3.8187518,8.874707,1.5783775
267,1436967797327,3.6595373,8.867524,1.673547
268,1436967797347,3.7834373,8.917803,1.5173253
269,1436967797366,3.8402996,8.942344,1.5280992
270,1436967797390,3.7588966,8.913613,1.5466543
271,1436967797406,3.6948519,8.911818,1.5388732
272,1436967797428,3.6469676,8.907627,1.5023615
273,1436967797452,3.6816838,8.90643,1.5089456
274,1436967797467,3.6750996,8.895657,1.4622587
275,1436967797487,3.781043,8.842984,1.2898762
276,1436967797510,3.654749,8.890868,1.6992847
277,1436967797529,3.5104983,8.887876,1.7842789
278,1436967797550,3.9737763,8.955511,1.1198878
279,1436967797570,3.9091327,8.938752,1.3132197
280,1436967797589,3.5811272,8.965088,1.8082209
281,1436967797610,3.642778,8.940548,1.6490064
282,1436967797630,3.8827965,8.9279785,1.4257472
283,1436967797649,3.8630445,8.896255,1.4814123
284,1436967797671,3.7110126,8.867524,1.5406688
285,1436967797686,3.6361938,8.900445,1.6472107
286,1436967797709,3.6858735,8.966884,1.5849615
287,1436967797730,3.7714663,8.959702,1.4347254
288,1436967797749,3.7600937,8.965088,1.5023615
289,1436967797769,3.6140475,8.987235,1.6208745
290,1436967797791,3.6762967,8.952518,1.6017209
291,1436967797809,3.7708676,8.921992,1.6118963
292,1436967797830,3.7403417,8.860342,1.6657659
293,1436967797849,3.6703112,8.862736,1.5574282
294,1436967797870,3.6104562,8.899248,1.5520413
295,1436967797891,3.620033,8.911818,1.5705963
296,1436967797911,3.6373909,9.017162,1.6035166
297,1436967797929,3.727772,8.947132,1.3599066
298,1436967797952,3.731962,8.926781,1.3347675
299,1436967798022,3.530849,8.848371,2.0129251
300,1436967798026,3.4763808,8.844181,1.7597382
301,1436967798027,3.9833531,8.940548,1.003769
302,1436967798028,3.6176388,9.006987,1.62686
303,1436967798048,3.3464954,9.006987,1.9243397
304,1436967798070,3.608062,8.9519205,1.6059108
305,1436967798087,3.775656,8.878897,1.4065934
306,1436967798113,3.608062,8.855554,1.4772224
307,1436967798128,3.4141316,8.895058,1.532289
308,1436967798148,3.4213142,8.916007,1.6436194
309,1436967798168,3.5458126,8.93935,1.5837644
310,1436967798188,3.7062242,8.878299,1.5167267
311,1436967798213,3.6379895,8.89805,1.6382325
312,1436967798231,3.4566288,8.924387,1.6729485
313,1436967798250,3.594894,8.978256,1.6106992
314,1436967798270,3.709217,8.950125,1.5831659
315,1436967798291,3.6762967,8.8645315,1.5729905
316,1436967798310,3.572149,8.878299,1.5993267
317,1436967798330,3.4901476,8.920795,1.6005238
318,1436967798351,3.5314474,8.996213,1.5263035
319,1436967798370,3.5853171,8.982447,1.6932992
320,1436967798392,3.6870706,8.869919,1.364695
321,1436967798407,3.6595373,8.931569,1.6597804
322,1436967798431,3.4434607,8.871116,2.0033484
323,1436967798452,3.6379895,8.962694,1.567005
324,1436967798471,3.821146,8.945934,1.376666
325,1436967798491,3.4823663,9.043498,1.8106151
326,1436967798510,3.643975,9.060856,1.6603789
327,1436967798530,3.8355112,9.049484,1.5891514
328,1436967798548,3.8594532,8.829217,1.5586253
329,1436967798570,3.6601357,8.741829,2.0111294
330,1436967798592,3.3734303,8.722675,1.7914615
331,1436967798612,3.4302924,8.789114,1.5658079
332,1436967798632,3.705027,8.93576,1.3371617
333,1436967798650,3.7822402,8.996812,1.4371196
334,1436967798670,3.6643257,8.983644,1.6525977
335,1436967798721,3.5529952,9.027337,1.7423803
336,1436967798724,3.6337996,9.059061,1.721431
337,1436967798738,3.705027,8.992023,1.6484078
338,1436967798747,3.669114,8.933365,1.6166847
339,1436967798770,3.5954924,8.889072,1.738789
340,1436967798791,3.4620156,8.84059,1.7657237
341,1436967798807,3.4931402,8.900445,1.8106151
342,1436967798831,3.7134068,8.853758,1.3946224
343,1436967798848,3.9384618,8.816648,1.2898762
344,1436967798870,3.7475243,8.812458,1.951873
345,1436967798888,3.4261026,8.857349,1.9261353
346,1436967798910,3.6727054,8.985439,1.3623008
347,1436967798928,3.6673183,9.174581,1.673547
348,1436967798951,3.4871547,9.18715,1.8142064
349,1436967798971,3.5769374,9.088988,1.673547
350,1436967798991,3.66672,8.923788,1.6310499
351,1436967799011,3.5984852,8.818443,1.697489
352,1436967799031,3.5075054,8.845977,1.7615339
353,1436967799051,3.5236664,8.915408,1.7160441
354,1436967799071,3.6367924,9.018359,1.6741456
355,1436967799087,3.7187939,8.924985,1.7160441
356,1436967799113,3.6834793,8.905831,1.7561469
357,1436967799128,3.5242648,8.861539,1.8303672
358,1436967799169,3.4392707,8.942344,1.7896658
359,1436967799170,3.502717,9.015367,1.6298528
360,1436967799207,3.5877113,8.954913,1.4766239
361,1436967799208,3.615843,8.890868,1.42455
362,1436967799228,3.5757403,8.954913,1.6106992
363,1436967799248,3.53863,9.095572,1.6490064
364,1436967799268,3.4638114,9.178172,1.6849195
365,1436967799288,3.5936968,9.012374,1.1695676
366,1436967799308,3.5703533,8.910022,1.5628152
367,1436967799328,3.181894,8.789114,2.0895395
368,1436967799348,3.3997664,8.823831,1.4766239
369,1436967799377,3.7816415,9.065644,1.1857284
370,1436967799388,3.41473,9.081805,1.8579005
371,1436967799422,3.3554738,8.970475,1.8776526
372,1436967799433,3.5691562,8.913613,1.596334
373,1436967799455,3.6134489,8.909423,1.3922282
374,1436967799468,3.482965,9.006987,1.4736311
375,1436967799488,3.3452983,9.064447,1.5436616
376,1436967799508,3.405752,9.111733,1.6747441
377,1436967799532,3.5110967,9.057265,1.5191209
378,1436967799548,3.567959,8.977059,1.5065514
379,1436967799568,3.4272997,9.019556,1.6286557
380,1436967799589,3.3033998,9.015965,1.5514427
381,1436967799610,3.4356794,9.006389,1.4796166
382,1436967799628,3.4853592,8.930372,1.4454993
383,1436967799648,3.4464533,8.868123,1.477821
384,1436967799668,3.37762,8.907627,1.5532384
385,1436967799688,3.4219127,8.978855,1.4742297
386,1436967799712,3.4626143,9.0794115,1.5951369
387,1436967799732,3.4991257,8.994417,1.3676877
388,1436967799752,3.5470097,8.95611,1.459266
389,1436967799769,3.271078,9.071032,2.0207062
390,1436967799789,3.3728316,8.938153,1.3736732
391,1436967799812,3.6403837,8.971074,0.9415198
392,1436967799829,3.2309752,9.088389,1.6879122
393,1436967799852,3.2609026,8.991425,1.6514006
394,1436967799871,3.5883098,8.965088,1.3102269
395,1436967799889,3.5859156,8.947132,1.3790601
396,1436967799909,3.3746274,8.926781,1.5131354
397,1436967799932,3.3734303,8.954314,1.6112977
398,1436967799952,3.5296519,9.051279,1.3844471
399,1436967799972,3.5224693,9.120711,1.5867572
400,1436967799992,3.5224693,8.965088,1.608305
401,1436967800009,3.4763808,8.996812,1.5610195
402,1436967800029,3.3877954,9.010578,1.6603789
403,1436967800049,3.435081,9.020754,1.5233108
404,1436967800070,3.494936,9.029732,1.5298948
405,1436967800089,3.4596214,8.995614,1.4574703
406,1436967800109,3.4171243,8.937555,1.4766239
407,1436967800130,3.4231098,8.925584,1.5328877
408,1436967800150,3.466804,8.990826,1.4676456
409,1436967800172,3.4650085,9.024344,1.5831659
410,1436967800191,3.606865,8.966286,1.0893618
411,1436967800209,3.6170402,8.980052,1.8136078
412,1436967800228,3.3716345,8.979453,1.7818847
413,1436967800251,3.6984432,8.900445,1.1737574
414,1436967800272,3.8031895,8.99322,1.4718355
415,1436967800292,3.3901896,9.106346,1.6514006
416,1436967800314,3.5781345,8.960898,1.5161282
417,1436967800330,3.696049,8.963891,1.4466964
418,1436967800352,3.4805708,9.057265,1.5688007
419,1436967800372,3.3638535,9.093178,1.763928
420,1436967800392,3.4608185,9.045893,1.6166847
421,1436967800412,3.6002808,8.978855,1.4119805
422,1436967800431,3.714604,8.898649,1.496376
423,1436967800450,3.6864722,8.841188,1.5334862
424,1436967800472,3.5775359,8.86513,1.5897499
425,1436967800492,3.4680011,8.863335,1.6484078
426,1436967800510,3.4883518,8.963293,1.7561469
427,1436967800529,3.4943373,9.026739,1.7046716
428,1436967800549,3.5607765,9.078215,1.5927427
429,1436967800574,3.57993,8.999206,1.6011224
430,1436967800595,3.459023,8.980651,1.7495629
431,1436967800615,3.3063924,9.021951,1.8112136
