id,attr_time,attr_x,attr_y,attr_z
1,1436977877412,-1.2042835,9.582792,-0.64583594
2,1436977877432,-1.2318168,9.587581,-0.6985083
3,1436977877449,-1.2467805,9.589975,-0.664391
4,1436977877538,-1.2336124,9.637859,-0.62488663
5,1436977877539,-1.2431892,9.636662,-0.65541273
6,1436977877540,-1.198298,9.606135,-0.6991069
7,1436977877541,-1.0977415,9.595362,-0.6745663
8,1436977877554,-1.2204443,9.531317,-0.6967127
9,1436977877573,-1.1947067,9.559449,-0.6781576
10,1436977877588,-1.1312603,9.583989,-0.7152678
11,1436977877610,-1.163582,9.692925,-0.7260417
12,1436977877629,-1.2186487,9.722255,-0.62368953
13,1436977877661,-1.2000936,9.646238,-0.56682724
14,1436977877669,-1.1737574,9.570223,-0.7128736
15,1436977877690,-1.1971009,9.5492735,-0.78769237
16,1436977877709,-1.1887212,9.552266,-0.7092823
17,1436977877728,-1.1875241,9.579201,-0.6386533
18,1436977877749,-1.1953052,9.651027,-0.6853402
19,1436977877772,-1.1833342,9.660604,-0.7398083
20,1436977877791,-1.1917139,9.645041,-0.7038953
21,1436977877811,-1.2258313,9.617508,-0.6769605
22,1436977877830,-1.1707647,9.572019,-0.65660983
23,1436977877851,-1.1659763,9.585785,-0.66738373
24,1436977877873,-1.1869255,9.572617,-0.7116765
25,1436977877891,-1.1899183,9.59177,-0.6512229
26,1436977877910,-1.168969,9.596559,-0.6099229
27,1436977877932,-1.1761516,9.595362,-0.6536171
28,1436977877951,-1.1959038,9.613917,-0.6739678
29,1436977877970,-1.1917139,9.598354,-0.670975
30,1436977877990,-1.1911154,9.589975,-0.6871359
31,1436977878013,-1.2078748,9.5732155,-0.6811504
32,1436977878029,-1.1875241,9.597756,-0.700304
33,1436977878054,-1.1845313,9.6288805,-0.7104794
34,1436977878073,-1.2054806,9.625888,-0.6847417
35,1436977878092,-1.192911,9.620501,-0.6631939
36,1436977878114,-1.192911,9.582193,-0.6679823
37,1436977878130,-1.2036849,9.570822,-0.66379243
38,1436977878154,-1.2192472,9.586982,-0.6751649
39,1436977878170,-1.1851299,9.590573,-0.6799533
40,1436977878253,-1.2252327,9.607931,-0.7098808
41,1436977878254,-1.2120646,9.591172,-0.6985083
42,1436977878255,-1.2006922,9.605537,-0.6793547
43,1436977878256,-1.1839328,9.584588,-0.6703765
44,1436977878276,-1.2006922,9.586384,-0.6572084
45,1436977878289,-1.1875241,9.576807,-0.6739678
46,1436977878322,-1.1959038,9.593566,-0.7128736
47,1436977878330,-1.2120646,9.586982,-0.717662
48,1436977878349,-1.1947067,9.601946,-0.7098808
49,1436977878369,-1.1845313,9.624092,-0.64942724
50,1436977878389,-1.2509704,9.614515,-0.6733692
51,1436977878412,-1.2479776,9.589975,-0.7613561
52,1436977878432,-1.1294646,9.592968,-0.7110779
53,1436977878452,-1.2114661,9.58818,-0.7589619
54,1436977878470,-1.2557588,9.591172,-0.75956047
55,1436977878491,-1.1611878,9.554661,-0.7637503
56,1436977878509,-1.1779473,9.626487,-0.8206126
57,1436977878531,-1.2372037,9.7007065,-0.7338228
58,1436977878552,-1.2090719,9.653421,-0.6087258
59,1436977878576,-1.1869255,9.600749,-0.65421563
60,1436977878592,-1.2270284,9.547478,-0.7870938
61,1436977878614,-1.2198458,9.5253315,-0.78529817
62,1436977878632,-1.2060791,9.520543,-0.6691794
63,1436977878651,-1.2132617,9.594764,-0.6787562
64,1436977878672,-1.2156559,9.632472,-0.7284359
65,1436977878690,-1.1725603,9.643845,-0.7781156
66,1436977878709,-1.1976994,9.661202,-0.7074866
67,1436977878731,-1.186327,9.620501,-0.6973112
68,1436977878752,-1.1468226,9.601347,-0.6775591
69,1436977878772,-1.1761516,9.576807,-0.717662
70,1436977878792,-1.2000936,9.583989,-0.7074866
71,1436977878813,-1.2018893,9.595362,-0.6374562
72,1436977878832,-1.2012907,9.599552,-0.6392518
73,1436977878853,-1.198298,9.611523,-0.7038953
74,1436977878873,-1.1617863,9.607931,-0.7206547
75,1436977878891,-1.1767502,9.607333,-0.6871359
76,1436977878923,-1.1935096,9.59177,-0.682946
77,1436977878979,-1.1923125,9.568427,-0.6733692
78,1436977878980,-1.210269,9.576807,-0.66498953
79,1436977878982,-1.2306197,9.589376,-0.6775591
80,1436977879014,-1.2180501,9.609129,-0.676362
81,1436977879015,-1.2126632,9.603742,-0.6512229
82,1436977879033,-1.1923125,9.594764,-0.6985083
83,1436977879057,-1.1893197,9.593566,-0.7080852
84,1436977879081,-1.1821371,9.605537,-0.6733692
85,1436977879146,-1.2012907,9.583989,-0.6787562
86,1436977879147,-1.216853,9.595961,-0.6781576
87,1436977879148,-1.2144588,9.601347,-0.64942724
88,1436977879150,-1.2258313,9.586384,-0.6536171
89,1436977879177,-1.2126632,9.600749,-0.6631939
90,1436977879217,-1.2186487,9.60853,-0.676362
91,1436977879218,-1.2413936,9.615114,-0.66618663
92,1436977879232,-1.2096704,9.601347,-0.64823014
93,1436977879254,-1.1941081,9.607333,-0.65242
94,1436977879273,-1.1953052,9.6049385,-0.65900403
95,1436977879291,-1.1851299,9.613318,-0.6853402
96,1436977879310,-1.198298,9.593566,-0.6452374
97,1436977879332,-1.18094,9.605537,-0.6135142
98,1436977879353,-1.2198458,9.586982,-0.66259533
99,1436977879373,-1.2036849,9.592968,-0.6847417
100,1436977879394,-1.204882,9.583391,-0.6955156
101,1436977879410,-1.1731589,9.611523,-0.64703304
102,1436977879442,-1.2797008,9.603143,-0.7044938
103,1436977879451,-1.1965023,9.56723,-0.6997054
104,1436977879476,-1.1522095,9.58818,-0.7428011
105,1436977879502,-1.2252327,9.654019,-0.7188591
106,1436977879510,-1.2425907,9.639654,-0.5979519
107,1436977879530,-1.2042835,9.57142,-0.6607997
108,1436977879550,-1.2593501,9.585187,-0.7457938
109,1436977879570,-1.2545617,9.566631,-0.7224504
110,1436977879590,-1.2485762,9.586982,-0.6500258
111,1436977879611,-1.2509704,9.653421,-0.6356605
112,1436977879630,-1.2258313,9.639654,-0.6607997
113,1436977879660,-1.2234371,9.639654,-0.6937199
114,1436977879670,-1.210269,9.611523,-0.6631939
115,1436977879693,-1.2725182,9.630077,-0.6374562
116,1436977879832,-1.2306197,9.552865,-0.6087258
117,1436977879833,-1.2312182,9.548675,-0.61890113
118,1436977879834,-1.2665327,9.551069,-0.6871359
119,1436977879835,-1.2886791,9.60853,-0.6075287
120,1436977879836,-1.2958617,9.63726,-0.6159084
121,1436977879837,-1.2719196,9.639056,-0.6799533
122,1436977879838,-1.2623428,9.615712,-0.7015011
123,1436977879855,-1.2545617,9.598354,-0.717662
124,1436977879875,-1.2431892,9.564836,-0.7182605
125,1436977879915,-1.2455834,9.573814,-0.6985083
126,1436977879916,-1.2587515,9.584588,-0.6907272
127,1436977879935,-1.2665327,9.620501,-0.7044938
128,1436977879954,-1.2826935,9.639654,-0.7218518
129,1436977879977,-1.2749124,9.622895,-0.7344214
130,1436977879995,-1.2557588,9.629479,-0.7206547
131,1436977880017,-1.2186487,9.583989,-0.7368156
132,1436977880036,-1.2336124,9.588778,-0.7290344
133,1436977880060,-1.2384008,9.609129,-0.7290344
134,1436977880073,-1.2384008,9.586384,-0.7368156
135,1436977880091,-1.2378023,9.5971575,-0.7116765
136,1436977880112,-1.2318168,9.588778,-0.7278373
137,1436977880131,-1.2330139,9.595362,-0.7266402
138,1436977880152,-1.2216414,9.607931,-0.7218518
139,1436977880169,-1.2174516,9.615712,-0.741604
140,1436977880192,-1.1905168,9.589376,-0.705691
141,1436977880211,-1.2024878,9.586384,-0.7469909
142,1436977880233,-1.18094,9.589376,-0.75836337
143,1436977880253,-1.192911,9.592968,-0.7661445
144,1436977880272,-1.2120646,9.598354,-0.75477207
145,1436977880291,-1.1881226,9.569624,-0.7350199
146,1436977880312,-1.2108675,9.604341,-0.7038953
147,1436977880333,-1.1659763,9.586384,-0.74998367
148,1436977880353,-1.2084733,9.616311,-0.789488
149,1436977880373,-1.134253,9.619903,-0.75477207
150,1436977880393,-1.2060791,9.5809965,-0.78290397
151,1436977880413,-1.252766,9.58818,-0.7673417
152,1436977880431,-1.1432313,9.5492735,-0.85473
153,1436977880475,-1.1599907,9.646837,-0.7781156
154,1436977880476,-1.186327,9.65821,-0.6877344
155,1436977880499,-1.13964,9.5971575,-0.7188591
156,1436977880512,-1.1534066,9.539697,-0.84335756
157,1436977880531,-1.1713632,9.5570545,-0.84575176
158,1436977880551,-1.1976994,9.573814,-0.7428011
159,1436977880573,-1.204882,9.610326,-0.7032967
160,1436977880591,-1.1971009,9.624092,-0.75836337
161,1436977880611,-1.186327,9.601347,-0.7858967
162,1436977880634,-1.1348516,9.60853,-0.8122329
163,1436977880653,-1.1665748,9.594764,-0.7565677
164,1436977880672,-1.1079168,9.509171,-0.7787141
165,1436977880694,-1.1079168,9.564238,-0.7589619
166,1436977880714,-1.1575965,9.578603,-0.7823054
167,1436977880734,-1.1869255,9.589975,-0.6775591
168,1436977880753,-1.1629834,9.613318,-0.6931214
169,1436977880775,-1.174356,9.61691,-0.7410054
170,1436977880794,-1.168969,9.61691,-0.75836337
171,1436977880814,-1.13964,9.598953,-0.75118077
172,1436977880831,-1.1306617,9.59177,-0.6985083
173,1436977880851,-1.1552023,9.5732155,-0.6985083
174,1436977880872,-1.1348516,9.551667,-0.65780693
175,1436977880893,-1.2036849,9.618107,-0.7332243
176,1436977880914,-1.1881226,9.670779,-0.7320272
177,1436977880934,-1.168969,9.661801,-0.7009025
178,1436977880955,-1.2150574,9.614515,-0.7493851
179,1436977880974,-1.1923125,9.578603,-0.7966706
180,1436977880996,-1.1821371,9.589376,-0.7428011
181,1436977881015,-1.1563994,9.644443,-0.6937199
182,1436977881034,-1.1264719,9.683948,-0.6697779
183,1436977881052,-1.1139023,9.687539,-0.7428011
184,1436977881076,-1.1061212,9.64983,-0.7457938
185,1436977881181,-1.1073183,9.56723,-0.6937199
186,1436977881182,-1.163582,9.5570545,-0.59376204
187,1436977881189,-1.2000936,9.548675,-0.6314707
188,1436977881190,-1.2455834,9.578603,-0.6703765
189,1436977881191,-1.234211,9.627085,-0.676362
190,1436977881192,-1.2198458,9.647436,-0.6380547
191,1436977881212,-1.1791444,9.672575,-0.57041854
192,1436977881232,-1.1887212,9.622895,-0.599149
193,1436977881252,-1.1695676,9.591172,-0.62847793
194,1436977881273,-1.1563994,9.551069,-0.65182143
195,1436977881295,-1.1563994,9.567828,-0.62009823
196,1436977881315,-1.2683283,9.566033,-0.6769605
197,1436977881336,-1.1881226,9.556456,-0.7080852
198,1436977881355,-1.163582,9.607931,-0.7428011
199,1436977881372,-1.2030864,9.618107,-0.66618663
200,1436977881391,-1.2210429,9.609727,-0.53929394
201,1436977881414,-1.2030864,9.599552,-0.5835867
202,1436977881434,-1.2156559,9.553463,-0.7015011
203,1436977881454,-1.2174516,9.565434,-0.6853402
204,1436977881474,-1.2360066,9.590573,-0.6332663
205,1436977881496,-1.228824,9.627085,-0.641646
206,1436977881515,-1.2437878,9.633669,-0.6721721
207,1436977881537,-1.2557588,9.63726,-0.66738373
208,1436977881563,-1.2366052,9.652225,-0.6619968
209,1436977881578,-1.2354081,9.625888,-0.6943185
210,1436977881646,-1.1905168,9.515755,-0.65780693
211,1436977881647,-1.2006922,9.458294,-0.62249243
212,1436977881648,-1.2659341,9.503185,-0.64463884
213,1436977881652,-1.316811,9.613917,-0.56682724
214,1436977881673,-1.3186066,9.715671,-0.5327099
215,1436977881695,-1.3281834,9.693524,-0.5859809
216,1436977881718,-1.287482,9.664794,-0.6338649
217,1436977881739,-1.2749124,9.610924,-0.6745663
218,1436977881761,-1.264737,9.577405,-0.6631939
219,1436977881777,-1.2779051,9.566033,-0.62608373
220,1436977881797,-1.276708,9.583391,-0.56682724
221,1436977881816,-1.3078327,9.586384,-0.6015432
222,1436977881922,-1.3150153,9.6049385,-0.635062
223,1436977881923,-1.3341689,9.613917,-0.6159084
224,1436977881924,-1.3198037,9.618107,-0.641646
225,1436977881925,-1.3275849,9.611523,-0.61291564
226,1436977881926,-1.2922704,9.601946,-0.5847838
227,1436977881935,-1.2797008,9.56723,-0.6015432
228,1436977881957,-1.2515689,9.5971575,-0.6183026
229,1436977881976,-1.2599486,9.602545,-0.6206968
230,1436977881998,-1.2982559,9.617508,-0.6051345
231,1436977882018,-1.2916719,9.626487,-0.6099229
232,1436977882033,-1.3126211,9.622895,-0.6398504
233,1436977882053,-1.2743138,9.639654,-0.66498953
234,1436977882074,-1.2892777,9.607333,-0.6584055
235,1436977882095,-1.283292,9.601347,-0.6135142
236,1436977882115,-1.2389994,9.607333,-0.5674258
237,1436977882135,-1.2000936,9.622296,-0.5746084
238,1436977882153,-1.1821371,9.607333,-0.6290765
239,1436977882172,-1.2030864,9.55047,-0.7218518
240,1436977882193,-1.2898762,9.5570545,-0.7679402
241,1436977882216,-1.2318168,9.602545,-0.682946
242,1436977882237,-1.3192052,9.61272,-0.6039374
243,1436977882255,-1.3257892,9.557653,-0.6075287
244,1436977882275,-1.3126211,9.60853,-0.6931214
245,1436977882293,-1.2791022,9.595961,-0.7116765
246,1436977882312,-1.2282255,9.524733,-0.6512229
247,1436977882333,-1.1869255,9.543288,-0.56922144
248,1436977882354,-1.1546037,9.643845,-0.61770403
249,1436977882373,-1.1935096,9.66659,-0.65301853
250,1436977882392,-1.2138603,9.692925,-0.61171854
251,1436977882412,-1.2533646,9.675568,-0.6159084
252,1436977882437,-1.2192472,9.61691,-0.6440403
253,1436977882454,-1.1671734,9.577405,-0.6266823
254,1436977882472,-1.1468226,9.59177,-0.55725044
255,1436977882501,-1.2330139,9.60853,-0.55964464
256,1436977882512,-1.2431892,9.561843,-0.58657944
257,1436977882532,-1.3018472,9.553463,-0.5805939
258,1436977882554,-1.2689269,9.536704,-0.6147113
259,1436977882574,-1.2623428,9.548675,-0.5710171
260,1436977882658,-1.2563573,9.574412,-0.5291186
261,1436977882659,-1.2419921,9.645041,-0.55126494
262,1436977882660,-1.2024878,9.637859,-0.6039374
263,1436977882661,-1.204882,9.648034,-0.6781576
264,1436977882674,-1.1707647,9.589975,-0.7062895
265,1436977882694,-1.1378443,9.615114,-0.6356605
266,1436977882713,-1.1815386,9.603742,-0.5967548
267,1436977882733,-1.1947067,9.615114,-0.66618663
268,1436977882757,-1.2312182,9.625888,-0.7278373
269,1436977882773,-1.264737,9.624691,-0.676362
270,1436977882796,-1.2946646,9.652225,-0.62488663
271,1436977882820,-1.3204023,9.620501,-0.60453594
272,1436977882834,-1.292869,9.602545,-0.56682724
273,1436977882856,-1.2455834,9.628283,-0.6099229
274,1436977882874,-1.1899183,9.602545,-0.62009823
275,1436977882895,-1.1976994,9.606734,-0.64463884
276,1436977882914,-1.2156559,9.585187,-0.6691794
277,1436977882933,-1.2090719,9.582193,-0.65541273
278,1436977882954,-1.2264298,9.609129,-0.6171055
279,1436977882973,-1.2216414,9.609727,-0.6099229
280,1436977882995,-1.2192472,9.586384,-0.62847793
281,1436977883013,-1.2282255,9.624691,-0.6631939
282,1436977883035,-1.2348095,9.640253,-0.6787562
283,1436977883068,-1.2024878,9.617508,-0.6422446
284,1436977883076,-1.2036849,9.609129,-0.60333884
285,1436977883093,-1.204882,9.60853,-0.5614403
286,1436977883115,-1.2234371,9.555858,-0.61530983
287,1436977883135,-1.2623428,9.564238,-0.6799533
288,1436977883155,-1.2006922,9.586384,-0.60932434
289,1436977883176,-1.2479776,9.598354,-0.6290765
290,1436977883196,-1.3030443,9.606734,-0.66020113
291,1436977883217,-1.204882,9.592369,-0.6619968
292,1436977883237,-1.1935096,9.630676,-0.729633
293,1436977883257,-1.2330139,9.681553,-0.6913257
294,1436977883275,-1.2509704,9.640253,-0.5859809
295,1436977883295,-1.2018893,9.603143,-0.59974754
296,1436977883325,-1.2054806,9.588778,-0.6907272
297,1436977883382,-1.2455834,9.595362,-0.6955156
298,1436977883383,-1.2503718,9.560047,-0.6865373
299,1436977883384,-1.2539631,9.646238,-0.6841431
300,1436977883402,-1.2539631,9.651027,-0.6584055
301,1436977883414,-1.2180501,9.639654,-0.705691
302,1436977883440,-1.2234371,9.651626,-0.62368953
303,1436977883456,-1.2294226,9.638457,-0.641646
304,1436977883474,-1.2234371,9.615114,-0.5967548
305,1436977883495,-1.1953052,9.5798,-0.6422446
306,1436977883514,-1.234211,9.567828,-0.6338649
307,1436977883535,-1.2587515,9.590573,-0.55246204
308,1436977883562,-1.2378023,9.609727,-0.57520694
309,1436977883575,-1.240795,9.595362,-0.6027403
310,1436977883594,-1.2336124,9.609727,-0.64942724
311,1436977883616,-1.2240356,9.5492735,-0.6607997
312,1436977883635,-1.2360066,9.55047,-0.6500258
313,1436977883654,-1.2246342,9.555858,-0.60573304
314,1436977883674,-1.2324153,9.613917,-0.65242
315,1436977883695,-1.2641385,9.665991,-0.6853402
316,1436977883714,-1.276708,9.721656,-0.6973112
317,1436977883735,-1.2653356,9.745598,-0.7080852
318,1436977883756,-1.2078748,9.707291,-0.6769605
319,1436977883778,-1.1043255,9.635465,-0.64703304
320,1436977883795,-1.0115502,9.528324,-0.6757634
321,1436977883817,-0.961272,9.509769,-0.6721721
322,1436977883838,-1.0133458,9.605537,-0.64583594
323,1436977883858,-1.163582,9.695918,-0.6811504
324,1436977883878,-1.2599486,9.670779,-0.6410475
325,1436977883897,-1.2599486,9.55047,-0.58119243
326,1436977883917,-1.1468226,9.501988,-0.5351041
327,1436977883935,-1.074398,9.510367,-0.51355624
328,1436977883955,-1.0630256,9.508572,-0.56203884
329,1436977883977,-1.0247183,9.524135,-0.61890113
330,1436977884342,-1.0193313,9.569026,-0.6793547
331,1436977884344,-0.99778354,9.624092,-0.65660983
332,1436977884345,-1.0151415,9.618706,-0.63206923
333,1436977884346,-1.0133458,9.61272,-0.6464345
334,1436977884355,-0.96067345,9.599552,-0.59855044
335,1436977884356,-0.9032126,9.543886,-0.56443304
336,1436977884357,-0.7787141,9.452309,-0.53570265
337,1436977884358,-0.74878657,9.42238,-0.4758476
338,1436977884359,-0.6631939,9.591172,-0.3309984
339,1436977884360,-0.6973112,9.689933,-0.27593175
340,1436977884361,-0.6410475,9.730036,-0.25079262
341,1436977884362,-0.49081135,9.81503,-0.3489549
342,1436977884363,-0.480636,9.914988,-0.45549688
343,1436977884364,-0.65780693,9.837176,-0.38067806
344,1436977884365,-0.86011696,9.424176,-0.5758055
345,1436977884418,-0.9163807,9.24102,-0.6386533
346,1436977884419,-0.9367314,9.203311,-0.53570265
347,1436977884420,-1.0139444,9.208099,-0.5494693
348,1436977884421,-1.1145009,9.046491,-0.6344634
349,1436977884422,-1.1174936,8.867524,-0.86251116
350,1436977884423,-1.0462662,9.109339,-1.3257892
351,1436977884424,-1.0342951,9.539697,-1.4161704
352,1436977884435,-1.1450269,9.818023,-1.1749545
353,1436977884455,-1.3186066,9.840169,-1.1719618
354,1436977884479,-1.5059528,9.776124,-1.3724761
355,1436977884497,-1.5999253,9.932345,-1.3814543
356,1436977884516,-1.5969325,10.42196,-1.0348936
357,1436977884536,-1.6220716,10.616488,-0.635062
358,1436977884555,-1.3730747,10.453085,-0.59136784
359,1436977884576,-1.0175357,10.107122,-0.7721301
360,1436977884593,-0.82480246,9.758766,-0.8936358
361,1436977884613,-0.7338228,9.321824,-0.9498995
362,1436977884633,-0.8738836,8.916007,-1.003769
363,1436977884653,-1.0283096,8.7951,-1.0773908
364,1436977884673,-1.1127052,8.918402,-1.2114661
365,1436977884693,-1.1821371,8.969876,-1.3311762
366,1436977884713,-1.2276269,9.258977,-1.5586253
367,1436977884733,-1.3192052,9.505579,-1.6585833
368,1436977884753,-1.3084313,9.645041,-1.6801311
369,1436977884773,-1.3359646,9.660604,-1.7423803
370,1436977884793,-1.4155718,9.566033,-1.9069817
371,1436977884813,-1.4083891,9.736021,-2.0500352
372,1436977884833,-1.3724761,10.052056,-2.1972785
373,1436977884853,-1.3365631,10.36031,-2.2756886
374,1436977884874,-1.3072342,10.648212,-2.3834279
375,1436977884894,-1.3706805,10.91756,-2.5474305
376,1436977884916,-1.4191631,10.914567,-2.4827871
377,1436977884942,-1.4915876,10.833763,-2.569577
378,1436977884961,-1.3802572,11.146805,-2.4708161
379,1436977884977,-1.4814123,11.472416,-2.7311857
380,1436977885004,-1.5328877,11.577163,-3.4865563
381,1436977885017,-0.635062,12.119449,-4.3819876
382,1436977885034,0.79726917,13.458406,-4.9655743
383,1436977885054,2.2990322,14.103643,-4.736928
384,1436977885074,3.2615013,12.885593,-3.8893807
385,1436977885094,3.1866825,10.392033,-3.7972038
386,1436977885114,3.083732,8.474875,-4.1054573
387,1436977885134,3.0322564,7.0766616,-3.9797618
388,1436977885154,2.7102363,6.341043,-3.4386723
389,1436977885174,1.7298107,7.781754,-2.1440077
390,1436977885194,0.95468795,9.277532,-2.1481974
391,1436977885214,0.4381389,10.28549,-2.505532
392,1436977885234,0.17298107,10.2406,-2.939481
393,1436977885254,-0.007182605,9.490017,-2.870648
394,1436977885274,-0.11611878,8.723274,-2.5115175
395,1436977885294,-0.08020575,7.9236107,-1.9297266
396,1436977885314,0.077213004,7.0700774,-1.3215994
397,1436977885334,0.43634325,6.103419,-0.85532856
398,1436977885355,0.8738836,5.765238,-0.96187055
399,1436977885375,1.3221979,6.3218894,-1.5185224
400,1436977885395,1.2467805,7.377134,-1.7136499
401,1436977885414,0.95827925,7.921815,-1.762731
402,1436977885434,0.65242,8.377312,-1.9117701
403,1436977885454,0.40162733,8.701127,-1.9536686
404,1436977885474,0.15981296,9.058462,-1.9147629
405,1436977885495,0.11731588,9.610924,-1.941099
406,1436977885515,0.272939,10.123283,-1.9740193
407,1436977885535,0.40282443,10.8864355,-2.0829554
408,1436977885554,0.47225627,11.71842,-2.255338
409,1436977885579,0.599149,12.245743,-2.2385786
