id,attr_time,attr_x,attr_y,attr_z
1,1436982010002,0.2693477,9.476251,-2.2212207
2,1436982010022,0.22744916,9.4535055,-2.2876596
3,1436982010042,0.23582886,9.454702,-2.2284033
4,1436982010063,0.25198972,9.449914,-2.2026656
5,1436982010111,0.26396075,9.441534,-2.2379801
6,1436982010112,0.29508537,9.450513,-2.2517467
7,1436982010123,0.29029694,9.471462,-2.2511482
8,1436982010151,0.24899697,9.489418,-2.212841
9,1436982010162,0.2621651,9.462483,-2.2691047
10,1436982010188,0.22505496,9.458294,-2.2260091
11,1436982010202,0.2136825,9.452907,-2.2200236
12,1436982010223,0.21068975,9.464878,-2.1811178
13,1436982010245,0.19752164,9.488221,-2.1853075
14,1436982010263,0.1945289,9.4535055,-2.2415714
15,1436982010284,0.19931729,9.455301,-2.2529438
16,1436982010304,0.2184709,9.467871,-2.243367
17,1436982010322,0.27473465,9.45171,-2.2343888
18,1436982010344,0.25258827,9.437943,-2.2427685
19,1436982010364,0.23762453,9.446921,-2.2188265
20,1436982010385,0.22864626,9.479243,-2.2296004
21,1436982010404,0.2136825,9.454702,-2.2457612
22,1436982010425,0.19871874,9.465476,-2.2415714
23,1436982010446,0.19991584,9.46847,-2.2373815
24,1436982010464,0.19153613,9.46009,-2.202067
25,1436982010483,0.19931729,9.441534,-2.1996727
26,1436982010504,0.2112883,9.43495,-2.2122424
27,1436982010527,0.24720132,9.43914,-2.2188265
28,1436982010572,0.2645593,9.482236,-2.2331917
29,1436982010573,0.29388827,9.491214,-2.256535
30,1436982010582,0.24061728,9.490616,-2.2852654
31,1436982010603,0.20709845,9.502586,-2.2822728
32,1436982010622,0.18734628,9.479841,-2.2960393
33,1436982010643,0.18195933,9.464878,-2.2780828
34,1436982010663,0.17058687,9.440936,-2.2517467
35,1436982010683,0.16819267,9.431359,-2.2481554
36,1436982010704,0.18315643,9.426571,-2.2391772
37,1436982010723,0.17776948,9.423578,-2.255338
38,1436982010744,0.19752164,9.440337,-2.2307975
39,1436982010767,0.18315643,9.448717,-2.3014264
40,1436982010787,0.17298107,9.485229,-2.2469583
41,1436982010808,0.2136825,9.457097,-2.2601264
42,1436982010829,0.12449849,9.518148,-2.2409728
43,1436982010844,0.078410104,9.458893,-2.2888567
44,1436982010864,0.18914193,9.395446,-2.3259668
45,1436982010884,0.20171149,9.451111,-2.3050177
46,1436982010904,0.15801731,9.509171,-2.2505496
47,1436982010924,0.17477672,9.483433,-2.208651
48,1436982010948,0.18076223,9.46009,-2.273893
49,1436982010969,0.15263036,9.427768,-2.3636756
50,1436982010987,0.16699557,9.43914,-2.3187842
51,1436982011037,0.17417817,9.45171,-2.2547395
52,1436982011038,0.16998832,9.461287,-2.2499511
53,1436982011043,0.18974048,9.478644,-2.2732944
54,1436982011063,0.2112883,9.512163,-2.2822728
55,1436982011083,0.16938977,9.483433,-2.2667105
56,1436982011103,0.22924481,9.445126,-2.3223755
57,1436982011125,0.18136078,9.43076,-2.2415714
58,1436982011144,0.18136078,9.44752,-2.2481554
59,1436982011163,0.19931729,9.4457245,-2.2272062
60,1436982011186,0.18195933,9.431957,-2.224812
61,1436982011204,0.16101007,9.41879,-2.2577322
62,1436982011224,0.17657238,9.437943,-2.2756886
63,1436982011250,0.18914193,9.465476,-2.2697031
64,1436982011264,0.18495208,9.444528,-2.2780828
65,1436982011286,0.18794483,9.428367,-2.2768857
66,1436982011305,0.1921347,9.433155,-2.2637177
67,1436982011324,0.17597382,9.436148,-2.2637177
68,1436982011344,0.17597382,9.440337,-2.2541409
69,1436982011364,0.17537527,9.443929,-2.2637177
70,1436982011385,0.16460137,9.448717,-2.2661119
71,1436982011406,0.18375498,9.466075,-2.292448
72,1436982011426,0.17836803,9.4535055,-2.271499
73,1436982011448,0.20590134,9.460688,-2.280477
74,1436982011464,0.22804771,9.446322,-2.2667105
75,1436982011485,0.23702596,9.431957,-2.2661119
76,1436982011508,0.24061728,9.416395,-2.2744915
77,1436982011527,0.20051439,9.409213,-2.2637177
78,1436982011547,0.2136825,9.43076,-2.2643163
79,1436982011627,0.20709845,9.445126,-2.272696
80,1436982011628,0.19812019,9.478644,-2.2637177
81,1436982011629,0.2100912,9.44752,-2.2619221
82,1436982011630,0.2148796,9.437943,-2.2691047
83,1436982011644,0.23582886,9.414001,-2.259528
84,1436982011664,0.22146365,9.455301,-2.2385786
85,1436982011684,0.219668,9.442133,-2.3002293
86,1436982011704,0.21188685,9.478644,-2.2092497
87,1436982011724,0.22445641,9.454702,-2.292448
88,1436982011745,0.18016368,9.481039,-2.2918496
89,1436982011764,0.19871874,9.428367,-2.2900538
90,1436982011787,0.24181437,9.387066,-2.3259668
91,1436982011811,0.22744916,9.425972,-2.2667105
92,1436982011825,0.20470424,9.520543,-2.220622
93,1436982011893,0.22325931,9.465476,-2.2068555
94,1436982011894,0.20051439,9.444528,-2.284667
95,1436982011895,0.15023616,9.411607,-2.348712
96,1436982011927,0.16699557,9.427169,-2.2780828
97,1436982011928,0.2136825,9.462483,-2.224812
98,1436982011946,0.2100912,9.455301,-2.2571337
99,1436982011968,0.23822308,9.426571,-2.3247697
100,1436982011987,0.19632454,9.481039,-2.256535
101,1436982012008,0.24241292,9.438541,-2.291251
102,1436982012028,0.21787235,9.416994,-2.3026235
103,1436982012047,0.2172738,9.474455,-2.2541409
104,1436982012066,0.19692309,9.419388,-2.2361844
105,1436982012085,0.20590134,9.455301,-2.2140381
106,1436982012105,0.18614918,9.47206,-2.2637177
107,1436982012133,0.17238252,9.464279,-2.271499
108,1436982012212,0.20410569,9.458893,-2.2589293
109,1436982012213,0.23163901,9.434352,-2.247557
110,1436982012214,0.2100912,9.446322,-2.243367
111,1436982012215,0.19931729,9.437943,-2.2379801
112,1436982012225,0.18974048,9.442732,-2.2451627
113,1436982012245,0.16998832,9.46009,-2.2661119
114,1436982012265,0.16400282,9.457097,-2.2571337
115,1436982012285,0.15562311,9.4696665,-2.2709002
116,1436982012305,0.16519992,9.463681,-2.2535424
117,1436982012324,0.16998832,9.46847,-2.248754
118,1436982012346,0.19512744,9.463681,-2.2272062
119,1436982012364,0.2160767,9.452309,-2.2421699
120,1436982012386,0.2208651,9.4295635,-2.2296004
121,1436982012408,0.20350714,9.437345,-2.224812
122,1436982012426,0.19931729,9.443929,-2.2152352
123,1436982012446,0.19153613,9.464878,-2.2373815
124,1436982012465,0.18016368,9.461287,-2.2583308
125,1436982012485,0.17178397,9.458893,-2.2547395
126,1436982012505,0.18315643,9.476849,-2.2379801
127,1436982012525,0.17357962,9.463681,-2.2146366
128,1436982012548,0.15203181,9.48882,-2.2182279
129,1436982012568,0.17956513,9.441534,-2.260725
130,1436982012590,0.1400608,9.489418,-2.2373815
131,1436982012607,0.207697,9.463082,-2.2439656
132,1436982012626,0.12389994,9.4774475,-2.2511482
133,1436982012645,0.1388637,9.415796,-2.2852654
134,1436982012665,0.19812019,9.387665,-2.2828712
135,1436982012686,0.19692309,9.476251,-2.1948843
136,1436982012763,0.16101007,9.528324,-2.2098482
137,1436982012764,0.16879122,9.457695,-2.1865046
138,1436982012765,0.16280572,9.449914,-2.2732944
139,1436982012768,0.15083471,9.454104,-2.3038206
140,1436982012785,0.14903906,9.456498,-2.2343888
141,1436982012805,0.17657238,9.4535055,-2.1853075
142,1436982012827,0.19752164,9.455301,-2.2134395
143,1436982012845,0.23343466,9.445126,-2.259528
144,1436982012865,0.18974048,9.515156,-2.2409728
145,1436982012891,0.21667525,9.471462,-2.2637177
146,1436982012906,0.1604115,9.4295635,-2.2780828
147,1436982012925,0.17836803,9.478046,-2.2361844
148,1436982012947,0.17717093,9.444528,-2.212841
149,1436982012969,0.18974048,9.464279,-2.195483
150,1436982012986,0.16699557,9.463082,-2.2098482
151,1436982013006,0.17357962,9.458294,-2.2559366
152,1436982013025,0.19692309,9.46009,-2.2637177
153,1436982013046,0.19393034,9.462483,-2.2469583
154,1436982013066,0.17298107,9.455301,-2.2254105
155,1436982013086,0.16340427,9.448118,-2.2080526
156,1436982013109,0.16819267,9.441534,-2.2319946
157,1436982013129,0.15263036,9.44752,-2.2469583
158,1436982013146,0.15263036,9.461885,-2.2517467
159,1436982013165,0.17178397,9.446921,-2.2391772
160,1436982013185,0.16819267,9.437943,-2.2319946
161,1436982013205,0.16699557,9.463082,-2.2319946
162,1436982013226,0.19273324,9.46009,-2.235586
163,1436982013245,0.19093758,9.44752,-2.2750902
164,1436982013265,0.18614918,9.435549,-2.2709002
165,1436982013297,0.19692309,9.439739,-2.2571337
166,1436982013308,0.20949265,9.4457245,-2.2697031
167,1436982013327,0.18016368,9.5013895,-2.272696
168,1436982013345,0.16699557,9.489418,-2.2697031
169,1436982013366,0.15143326,9.483433,-2.2720973
170,1436982013386,0.15382746,9.454104,-2.2697031
171,1436982013406,0.17357962,9.460688,-2.2439656
172,1436982013426,0.16220717,9.4535055,-2.2577322
173,1436982013446,0.19033903,9.448118,-2.27928
174,1436982013469,0.2160767,9.460688,-2.2200236
175,1436982013486,0.24779987,9.448118,-2.2499511
176,1436982013507,0.17357962,9.471462,-2.2840683
177,1436982013527,0.26994625,9.41879,-2.2876596
178,1436982013548,0.29149407,9.421184,-2.2786815
179,1436982013569,0.25917232,9.467272,-2.2391772
180,1436982013587,0.25797522,9.448717,-2.179322
181,1436982013607,0.24660277,9.438541,-2.2188265
182,1436982013626,0.20649989,9.437943,-2.308609
183,1436982013647,0.20530279,9.457695,-2.296638
184,1436982013666,0.20709845,9.478046,-2.2373815
185,1436982013688,0.19692309,9.503783,-2.2140381
186,1436982013708,0.20171149,9.490017,-2.2427685
187,1436982013728,0.22565351,9.471462,-2.2577322
188,1436982013748,0.19991584,9.46009,-2.2182279
189,1436982013768,0.25498247,9.406818,-2.2170308
190,1436982013787,0.2208651,9.4295635,-2.2242134
191,1436982013806,0.17776948,9.458294,-2.2212207
192,1436982013826,0.19572599,9.428965,-2.154183
193,1436982013849,0.20590134,9.49301,-2.1613655
194,1436982013865,0.16101007,9.504382,-2.204461
195,1436982013885,0.16759412,9.476849,-2.2134395
196,1436982013905,0.16819267,9.473856,-2.2212207
197,1436982013927,0.19692309,9.458893,-2.2062569
198,1436982013945,0.2100912,9.454104,-2.1972785
199,1436982013968,0.1933318,9.451111,-2.1709423
200,1436982013987,0.1945289,9.451111,-2.1865046
201,1436982014005,0.18315643,9.464279,-2.1930888
202,1436982014026,0.15442601,9.476251,-2.2152352
203,1436982014045,0.15682021,9.463681,-2.1978772
204,1436982014066,0.15263036,9.459491,-2.1936872
205,1436982014087,0.16519992,9.479243,-2.1841104
206,1436982014120,0.16879122,9.499594,-2.204461
207,1436982014149,0.18195933,9.498397,-2.1978772
208,1436982014150,0.18435353,9.487024,-2.1930888
209,1436982014180,0.16400282,9.486425,-2.1757307
210,1436982014186,0.18016368,9.498995,-2.1691468
211,1436982014206,0.17717093,9.458893,-2.1505916
212,1436982014226,0.18315643,9.455899,-2.132635
213,1436982014246,0.15741876,9.482835,-2.1033063
214,1436982014272,0.19153613,9.404425,-2.1392193
215,1436982014287,0.14963761,9.4535055,-2.123657
216,1436982014312,0.19512744,9.444528,-2.146402
217,1436982014339,0.16400282,9.494805,-2.0991163
218,1436982014361,0.1376666,9.469068,-2.11827
219,1436982014368,0.2160767,9.414599,-2.156577
220,1436982014387,0.22146365,9.419987,-2.1134815
221,1436982014407,0.16759412,9.504382,-2.0626047
222,1436982014428,0.17238252,9.457097,-2.010531
223,1436982014447,0.16699557,9.458893,-2.0961237
224,1436982014467,0.14544775,9.464878,-2.1278467
225,1436982014500,0.18555063,9.490616,-2.0655975
226,1436982014507,0.20350714,9.496601,-2.0608091
227,1436982014533,0.21547815,9.546879,-2.0398598
228,1436982014547,0.23463176,9.545682,-2.0524294
229,1436982014570,0.25737667,9.546281,-1.9847932
230,1436982014586,0.24061728,9.576807,-1.9728222
231,1436982014606,0.2753332,9.563639,-2.011728
232,1436982014626,0.25617957,9.509171,-2.0685902
233,1436982014646,0.25139117,9.554062,-2.0931308
234,1436982014668,0.29328972,9.60015,-2.1021092
235,1436982014690,0.35553896,9.625289,-2.0590134
236,1436982014708,0.3800795,9.65821,-1.9470845
237,1436982014728,0.39444473,9.635465,-1.8555063
238,1436982014748,0.40222588,9.592968,-1.8177977
239,1436982014767,0.40462008,9.512762,-1.7956513
240,1436982014787,0.39384618,9.486425,-1.7968484
241,1436982014808,0.37469256,9.425972,-1.7860745
242,1436982014830,0.36990416,9.354146,-1.6962919
243,1436982014850,0.37349546,9.4217825,-1.6089035
244,1436982014866,0.362123,9.573814,-1.6298528
245,1436982014902,0.374094,9.634866,-1.6603789
246,1436982014907,0.41240123,9.651027,-1.6603789
247,1436982014929,0.38965634,9.631275,-1.6208745
248,1436982014947,0.3429694,9.60853,-1.5568297
249,1436982014967,0.30885202,9.653421,-1.5879543
250,1436982014986,0.28431144,9.714474,-1.620276
251,1436982015007,0.21547815,9.65821,-1.6633717
252,1436982015027,0.23403321,9.403227,-1.5454572
253,1436982015050,0.25198972,9.291298,-1.483208
254,1436982015068,0.30825347,9.2069025,-1.4766239
255,1436982015089,0.33877954,9.121908,-1.5340848
256,1436982015109,0.3633201,9.138069,-1.560421
257,1436982015129,0.39384618,9.234436,-1.4628572
258,1436982015148,0.3597288,9.287108,-1.4574703
259,1436982015169,0.28550854,9.311649,-1.3970166
260,1436982015188,0.23223756,9.365519,-1.3455414
261,1436982015211,0.06584055,9.481637,-1.3940239
262,1436982015230,-0.039504327,9.710882,-1.602918
263,1436982015264,-0.1328782,9.713875,-1.8740613
264,1436982015268,-0.10235212,9.577405,-2.0991163
265,1436982015289,-0.038905777,9.469068,-2.3391352
266,1436982015307,0.09756372,9.427169,-2.396596
267,1436982015327,0.19752164,9.368511,-2.381632
268,1436982015347,0.3878607,9.393052,-2.4648306
269,1436982015368,0.56443304,9.424775,-2.475006
270,1436982015389,0.6691794,9.539098,-2.3415294
271,1436982015407,0.59855044,9.51755,-2.28347
272,1436982015427,0.3645172,9.369708,-2.2301989
273,1436982015448,0.11791443,9.281123,-2.2182279
274,1436982015470,-0.25258827,9.320627,-2.2505496
275,1436982015489,-0.46327803,9.466075,-2.2703018
276,1436982015510,-0.5835867,9.606135,-2.220622
277,1436982015529,-0.6314707,9.569026,-2.2589293
278,1436982015547,-0.44831428,9.391256,-2.146402
279,1436982015567,-0.32621,9.500791,-2.03567
280,1436982015588,-0.12749124,9.901819,-2.0392613
281,1436982015610,0.09876082,9.82341,-2.1691468
282,1436982015632,0.30765492,9.572019,-2.236783
283,1436982015655,0.47524905,9.356541,-2.2254105
284,1436982015671,0.45609543,9.142858,-2.2284033
285,1436982015691,0.32680854,9.023148,-2.2703018
286,1436982015758,0.2160767,8.93935,-2.2218192
287,1436982015759,0.031124622,8.881291,-2.0787656
288,1436982015760,-0.05805939,8.970475,-2.0171149
289,1436982015768,-0.12030864,9.091981,-1.9470845
290,1436982015788,-0.13946225,9.25359,-1.8321629
291,1436982015808,-0.22984336,9.621099,-1.7118542
292,1436982015828,-0.38067806,9.691729,-1.5622166
293,1436982015849,-0.4890157,9.694721,-1.5652094
294,1436982015868,-0.6075287,9.799467,-1.7238252
295,1436982015890,-0.6835446,9.877877,-1.7471687
296,1436982015908,-0.58777654,10.048465,-1.8459295
297,1436982015928,-0.5279215,10.292074,-1.8447324
298,1436982015952,-0.47285482,10.519524,-1.6783354
299,1436982015974,-0.47764325,10.659584,-1.567005
300,1436982015997,-0.48243165,10.605117,-1.4933833
301,1436982016009,-0.42197806,10.185533,-1.7399861
302,1436982016037,-0.108936176,9.5013895,-1.9782091
303,1436982016049,0.7308301,9.679159,-2.510919
304,1436982016073,0.16938977,9.536704,-3.371036
305,1436982016093,0.18794483,8.015787,-4.198831
306,1436982016111,1.6968905,7.0862384,-4.6800656
307,1436982016129,2.7874494,6.453571,-4.6058455
308,1436982016148,3.6110547,6.342839,-3.9725792
309,1436982016168,3.9923313,6.326678,-3.86484
310,1436982016206,3.705027,7.44896,-4.3167458
311,1436982016213,2.9502552,9.46847,-4.71957
312,1436982016231,2.4349031,10.621876,-4.407127
313,1436982016248,2.5671828,11.742362,-4.291008
314,1436982016273,3.3482912,14.305954,-5.81791
315,1436982016311,3.2716765,14.587273,-6.1279593
316,1436982016312,2.6731262,13.266272,-5.032612
317,1436982016328,2.6354175,12.69705,-3.657143
318,1436982016350,2.475006,12.166136,-2.6749218
319,1436982016368,1.9596541,11.106702,-2.3481133
320,1436982016393,1.3281834,9.894637,-2.5408466
321,1436982016409,0.82121116,8.875306,-2.8766334
322,1436982016431,0.7811083,8.089409,-3.0119057
323,1436982016449,1.1043255,7.8128786,-2.542642
324,1436982016468,1.4814123,8.478467,-2.1350293
325,1436982016488,1.050456,8.670003,-1.7980455
326,1436982016509,0.79607207,5.8933277,-1.9003977
327,1436982016529,0.91937345,2.9694088,-2.1613655
328,1436982016549,0.14544775,0.32800564,-1.8596961
329,1436982016569,-2.3349452,-1.4030021,-2.2547395
330,1436982016588,-3.6762967,-1.8321629,-3.1639376
331,1436982016608,-0.46686932,1.7118542,-3.954024
332,1436982016628,0.36511576,5.9561753,-7.371747
333,1436982016661,-0.1316811,11.5155115,-5.60722
334,1436982016669,0.3728969,18.941727,-2.9442697
335,1436982016688,0.52492875,19.608511,-11.780071
336,1436982016711,-0.504578,18.41201,-11.799823
337,1436982016731,0.587178,15.276802,-3.9755719
338,1436982016751,0.3890578,15.089457,-2.421735
339,1436982016769,-0.7248446,13.320141,-3.2477345
340,1436982016789,-1.1486182,11.730989,-4.578911
341,1436982016811,-0.6242881,10.664372,-4.924873
342,1436982016836,0.521936,9.849746,-4.0653543
343,1436982016848,1.1953052,9.013571,-4.4143095
344,1436982016868,1.0151415,7.3603745,-5.0320134
345,1436982016888,0.80205756,5.6156,-4.301183
346,1436982016909,1.1150994,3.5691562,-2.4797945
347,1436982016928,1.9632454,1.2276269,-1.06123
348,1436982016961,2.907758,-1.3257892,-0.6895301
349,1436982016970,4.410718,-3.6882677,-0.8343793
350,1436982016989,4.88896,-3.139397,-1.7842789
351,1436982017010,4.4633904,1.5346833,-2.7575219
352,1436982017036,2.7700913,5.3205147,-2.582745
353,1436982017049,0.10414778,8.0367365,-3.2160115
354,1436982017070,0.11671733,14.292187,-4.59986
355,1436982017088,2.741361,19.608511,-7.6823945
356,1436982017111,6.1112,19.608511,-12.577939
357,1436982017132,-0.78649527,18.508974,-11.629236
358,1436982017151,1.7860745,14.000693,-3.445855
359,1436982017172,3.1866825,12.516887,-0.13587095
360,1436982017192,1.435324,10.608707,-1.270124
361,1436982017210,0.24899697,10.328587,-0.82121116
362,1436982017229,-0.59256494,9.940725,-1.2467805
363,1436982017249,-0.8050503,7.9607205,-3.027468
364,1436982017276,-0.37229836,5.787384,-4.0761285
365,1436982017320,0.010773907,5.204396,-3.4925418
366,1436982017321,-0.25438392,4.988918,-1.0055647
367,1436982017330,-0.9008184,3.3865983,0.7020996
368,1436982017351,-1.0773908,0.4429273,0.57400984
369,1436982017369,-1.459266,-2.8281507,0.19153613
370,1436982017390,-2.4540567,-5.133168,-0.13587095
371,1436982017410,-3.7565024,-2.4911668,-4.423288
372,1436982017431,-1.4012065,4.89315,-6.249465
373,1436982017450,2.0829554,8.3821,-5.473145
374,1436982017469,2.058415,18.020557,-1.2252327
375,1436982017492,2.191293,19.608511,-8.793902
376,1436982017509,-1.0594343,19.608511,-14.996681
377,1436982017531,-3.2543187,17.407043,-7.952341
378,1436982017553,-2.1045034,15.466543,-1.9261353
379,1436982017573,-1.970428,14.807539,-1.0378864
380,1436982017591,-2.3187842,12.8832,-2.0231004
381,1436982017611,-1.3323733,11.955446,-3.1052797
382,1436982017632,-1.2024878,10.511144,-4.2060137
383,1436982017650,1.0552444,7.1526775,-3.1890767
384,1436982017674,2.2816741,5.3384714,-2.9789855
385,1436982017689,2.0159178,4.5022964,-2.7641058
386,1436982017710,1.9566613,3.469797,-1.501763
387,1436982017736,3.0897174,1.0408791,-0.6835446
388,1436982017811,3.9187095,-2.5755625,-0.8463503
389,1436982017812,4.670489,-4.83928,-0.8074445
390,1436982017813,5.273828,-3.6493618,-1.1641805
391,1436982017814,4.811747,0.7404069,-2.681506
392,1436982017830,4.07553,4.994903,-4.2036195
393,1436982017850,1.560421,7.911041,-4.9440265
394,1436982017870,2.106299,16.870743,-5.6227827
395,1436982017890,8.92738,19.608511,-15.270817
396,1436982017910,3.7852328,19.608511,-18.09358
397,1436982017935,0.8265981,17.893066,-9.710283
398,1436982017951,3.8301241,14.1904335,-1.8662802
399,1436982017970,2.6240451,10.624868,-1.6795325
400,1436982017994,1.264737,9.087193,-1.6519991
401,1436982018018,0.9840169,8.93576,-0.7541735
402,1436982018030,1.0690111,8.646061,-0.50038815
403,1436982018050,0.22685061,6.9725137,-1.8770541
404,1436982018073,-0.75716627,4.6363716,-2.7515364
405,1436982018092,-1.780089,2.8951883,-2.232593
406,1436982018111,-1.9111716,-0.75237787,-1.2030864
407,1436982018130,-1.9674352,-3.3039982,-0.142455
408,1436982018150,-2.4450784,-5.4743423,1.6232687
409,1436982018171,-2.4983494,-5.067328,0.86969376
410,1436982018190,-3.1956608,0.1340753,-3.2028434
411,1436982018210,-2.4181437,3.731962,-5.943007
412,1436982018231,1.62686,6.3751607,-4.2922053
