id,attr_time,attr_x,attr_y,attr_z
1,1436986568511,-8.134899,5.2343235,0.47465047
2,1436986568531,-8.136695,5.255273,0.47465047
3,1436986568551,-8.1319065,5.2642508,0.47465047
4,1436986568570,-8.161235,5.307347,0.46567222
5,1436986568608,-8.09719,5.303157,0.4321534
6,1436986568611,-8.185177,5.2810106,0.4213795
7,1436986568630,-8.147469,5.243302,0.43993455
8,1436986568650,-8.183381,5.225345,0.4177882
9,1436986568671,-8.317456,5.2020016,0.45729253
10,1436986568691,-8.27496,5.17387,0.5374983
11,1436986568710,-8.16722,5.163096,0.5267244
12,1436986568730,-8.124723,5.2205567,0.4866215
13,1436986568764,-8.163031,5.2899885,0.47225627
14,1436986568773,-8.098986,5.3324857,0.47465047
15,1436986568791,-8.036138,5.3528366,0.44592008
16,1436986568810,-8.088212,5.3863554,0.43754035
17,1436986568830,-8.097789,5.3528366,0.4429273
18,1436986568850,-8.063671,5.2923827,0.45669398
19,1436986568870,-8.078635,5.309741,0.42796355
20,1436986568890,-8.154053,5.3007627,0.41479546
21,1436986568910,-8.18398,5.3037553,0.42437226
22,1436986568930,-8.111555,5.341464,0.41958386
23,1436986568950,-8.084022,5.3857565,0.41060558
24,1436986568970,-8.027759,5.4168816,0.37588966
25,1436986568992,-8.00621,5.442619,0.37828386
26,1436986569010,-7.9942393,5.482722,0.3800795
27,1436986569030,-7.978079,5.542577,0.3549404
28,1436986569050,-8.005013,5.5365915,0.39145198
29,1436986569070,-7.9427643,5.493496,0.4249708
30,1436986569090,-7.9673047,5.513248,0.43394905
31,1436986569110,-7.943961,5.5168395,0.43873745
32,1436986569131,-7.9541364,5.5587378,0.4405331
33,1436986569151,-7.9595237,5.577293,0.4225766
34,1436986569172,-7.9301944,5.5503583,0.4369418
35,1436986569194,-7.9092455,5.5605335,0.44651863
36,1436986569216,-7.877522,5.57849,0.44711718
37,1436986569236,-7.8386164,5.551555,0.47165772
38,1436986569255,-7.8386164,5.6102133,0.45310268
39,1436986569274,-7.832032,5.6096144,0.4237737
40,1436986569295,-7.863157,5.643732,0.39983168
41,1436986569315,-7.914034,5.6299653,0.39085343
42,1436986569335,-7.9152308,5.617396,0.38486794
43,1436986569356,-7.9385743,5.6227827,0.3693056
44,1436986569373,-8.016984,5.6425347,0.36152446
45,1436986569393,-7.9834657,5.6784477,0.3705027
46,1436986569415,-7.8505874,5.667674,0.36511576
47,1436986569480,-7.759608,5.7119665,0.3441665
48,1436986569481,-7.781754,5.732916,0.3633201
49,1436986569482,-7.7452426,5.773019,0.3513491
50,1436986569491,-7.711125,5.827487,0.3429694
51,1436986569511,-7.7063365,5.843049,0.34835634
52,1436986569531,-7.715315,5.8825536,0.3286042
53,1436986569551,-7.6506715,5.9238534,0.2645593
54,1436986569571,-7.597999,5.9585695,0.22625206
55,1436986569591,-7.6051817,6.007052,0.19273324
56,1436986569614,-7.6404963,5.9962783,0.19033903
57,1436986569646,-7.599196,5.9980736,0.17058687
58,1436986569651,-7.6093717,5.9705405,0.16400282
59,1436986569671,-7.647679,5.981314,0.1376666
60,1436986569691,-7.6321163,5.9388175,0.12629414
61,1436986569711,-7.6961613,5.9238534,0.10654198
62,1436986569731,-7.7386584,5.907693,0.090381116
63,1436986569751,-7.7230964,5.8885393,0.06584055
64,1436986569771,-7.7452426,5.9226565,0.02932897
65,1436986569791,-7.773973,5.8885393,-0.0047884034
66,1436986569811,-7.799112,5.9041014,-0.011971008
67,1436986569831,-7.7985134,5.873575,-0.038905777
68,1436986569851,-7.8116817,5.8562174,-0.045489833
69,1436986569871,-7.8050976,5.8203044,-0.09935937
70,1436986569891,-7.836222,5.8143187,-0.10115502
71,1436986569911,-7.832032,5.81791,-0.10414778
72,1436986569931,-7.8757267,5.801151,-0.0688333
73,1436986569951,-7.860164,5.7496753,-0.046088383
74,1436986569971,-7.8475947,5.707777,-0.019153614
75,1436986569991,-7.8691425,5.6880245,0.030526072
76,1436986570049,-7.888296,5.6670756,0.08619126
77,1436986570053,-7.914034,5.6604915,0.09696517
78,1436986570054,-7.8853035,5.6419363,0.110133275
79,1436986570073,-7.879916,5.647323,0.09696517
80,1436986570093,-7.9068513,5.643732,0.092176765
81,1436986570113,-7.925406,5.5964465,0.11671733
82,1436986570136,-7.9768815,5.549161,0.091578215
83,1436986570153,-8.034343,5.5503583,0.08379706
84,1436986570173,-8.120534,5.509058,0.09696517
85,1436986570193,-8.066066,5.445612,0.10594343
86,1436986570217,-8.010401,5.3881507,0.12808979
87,1436986570237,-8.103176,5.370793,0.14844051
88,1436986570257,-8.089409,5.333683,0.18195933
89,1436986570275,-8.075044,5.3402667,0.18854338
90,1436986570293,-8.115746,5.3474493,0.18315643
91,1436986570312,-8.158841,5.3725886,0.17058687
92,1436986570332,-8.123527,5.406706,0.16280572
93,1436986570354,-8.064868,5.3923407,0.15741876
94,1436986570372,-8.093599,5.4025164,0.130484
95,1436986570465,-8.172607,5.397129,0.17118542
96,1436986570466,-8.11395,5.3618145,0.19931729
97,1436986570476,-8.071452,5.37199,0.22685061
98,1436986570477,-8.061875,5.401319,0.19273324
99,1436986570478,-8.065467,5.4282537,0.15143326
100,1436986570492,-8.056489,5.468955,0.15741876
101,1436986570512,-8.051102,5.463568,0.17776948
102,1436986570532,-8.046313,5.442619,0.2160767
103,1436986570552,-8.024167,5.441422,0.2220622
104,1436986570572,-8.042722,5.4462104,0.2705448
105,1436986570592,-8.042124,5.4432178,0.25019407
106,1436986570612,-8.049905,5.4713492,0.25438392
107,1436986570633,-8.030751,5.459977,0.23582886
108,1436986570652,-8.030751,5.4863133,0.20350714
109,1436986570673,-8.029554,5.4779334,0.18495208
110,1436986570694,-8.002021,5.4911017,0.16460137
111,1436986570712,-8.033145,5.481525,0.18076223
112,1436986570732,-8.039729,5.445013,0.20111294
113,1436986570752,-8.075643,5.4192758,0.20530279
114,1436986570772,-8.085219,5.407305,0.24899697
115,1436986570792,-8.098388,5.425261,0.23463176
116,1436986570812,-8.040926,5.437232,0.1945289
117,1436986570832,-8.021772,5.463568,0.20949265
118,1436986570852,-7.9876556,5.467758,0.18914193
119,1436986570872,-7.9625163,5.4863133,0.1945289
120,1436986570892,-8.009802,5.494693,0.19512744
121,1436986570912,-8.009802,5.510854,0.17776948
122,1436986570932,-8.043321,5.511452,0.16699557
123,1436986570952,-8.112154,5.530606,0.20051439
124,1436986570972,-8.002021,5.5300074,0.22325931
125,1436986570992,-7.9092455,5.571906,0.1933318
126,1436986571012,-7.896077,5.581483,0.18734628
127,1436986571032,-7.9050555,5.617396,0.20829555
128,1436986571058,-7.8493905,5.599439,0.2112883
129,1436986571077,-7.844003,5.6239796,0.20709845
130,1436986571094,-7.901464,5.6281695,0.17298107
131,1436986571114,-7.969699,5.6706667,0.18375498
132,1436986571138,-7.877522,5.6377463,0.16519992
133,1436986571154,-7.902063,5.6604915,0.13108255
134,1436986571174,-7.9541364,5.6269727,0.15322891
135,1436986571194,-7.952341,5.5856724,0.16340427
136,1436986571218,-7.9343843,5.5647235,0.15622166
137,1436986571238,-7.9649105,5.53719,0.14784196
138,1436986571259,-7.991845,5.519832,0.13826515
139,1436986571278,-8.045714,5.5084596,0.14844051
140,1436986571294,-8.05589,5.5222263,0.12808979
141,1436986571314,-8.06008,5.519832,0.15322891
142,1436986571333,-8.019379,5.5168395,0.17896658
143,1436986571355,-7.9768815,5.507262,0.2160767
144,1436986571481,-7.939771,5.504868,0.24839842
145,1436986571482,-7.9451585,5.517438,0.26276365
146,1436986571483,-7.9212165,5.54557,0.24181437
147,1436986571485,-7.9194207,5.6138043,0.19273324
148,1436986571486,-7.893683,5.6365495,0.12509704
149,1436986571487,-7.872135,5.687426,0.09935937
150,1436986571514,-7.872135,5.7041855,0.092176765
151,1436986571519,-7.8948803,5.699397,0.109534726
152,1436986571533,-7.8865004,5.6646814,0.12509704
153,1436986571553,-7.926005,5.6628857,0.1376666
154,1436986571573,-7.901464,5.649119,0.12988544
155,1436986571593,-7.887099,5.638345,0.1316811
156,1436986571613,-7.8823104,5.6700683,0.11971009
157,1436986571633,-7.860164,5.6628857,0.06344634
158,1436986571653,-7.921815,5.673061,0.04129998
159,1436986571673,-7.917625,5.66528,0.06344634
160,1436986571693,-7.945757,5.6521115,0.0664391
161,1436986571713,-8.027759,5.6539073,0.10055647
162,1436986571733,-7.945757,5.6239796,0.15861586
163,1436986571753,-7.854179,5.6323595,0.16340427
164,1436986571773,-7.8146744,5.6527104,0.15263036
165,1436986571793,-7.8829093,5.6844335,0.12689269
166,1436986571814,-7.813477,5.6820393,0.130484
167,1436986571833,-7.8206596,5.725135,0.11911154
168,1436986571853,-7.8463974,5.719149,0.093972415
169,1436986571873,-7.921815,5.7185507,0.09935937
170,1436986571893,-7.8326306,5.6664767,0.092775315
171,1436986571988,-7.8966756,5.668871,0.049081136
172,1436986571989,-7.9870567,5.6658783,0.091578215
173,1436986571990,-7.921815,5.6377463,0.089184016
174,1436986571991,-7.884106,5.66109,0.045489833
175,1436986571995,-7.893683,5.6844335,0.036511578
176,1436986572179,-7.8847046,5.6946087,0.008379706
177,1436986572180,-7.9152308,5.695806,0.012569559
178,1436986572181,-7.8954787,5.671265,0.047285482
179,1436986572182,-7.9236107,5.6736593,0.061650693
180,1436986572183,-7.923012,5.6563015,0.055066638
181,1436986572184,-7.9272017,5.6419363,0.0688333
182,1436986572185,-7.921815,5.6335564,0.08678981
183,1436986572186,-7.8906903,5.674258,0.06823475
184,1436986572187,-7.888296,5.66109,0.06703765
185,1436986572195,-7.872135,5.687426,0.0664391
186,1436986572216,-7.8757267,5.677251,0.05207389
187,1436986572236,-7.887099,5.643732,0.05566519
188,1436986572254,-7.8853035,5.6305637,0.065242
189,1436986572278,-7.949947,5.6215854,0.05925649
190,1436986572295,-7.964312,5.6138043,0.074220255
191,1436986572317,-7.979874,5.595848,0.06284779
192,1436986572337,-7.994838,5.5790887,0.06404489
193,1436986572358,-7.9930425,5.5647235,0.05865794
194,1436986572378,-7.967903,5.5509567,0.074818805
195,1436986572396,-7.9942393,5.5467668,0.065242
196,1436986572418,-8.008605,5.5341973,0.08619126
197,1436986572438,-7.99005,5.539584,0.073621705
198,1436986572457,-8.054693,5.504868,0.08140286
199,1436986572477,-8.052299,5.4863133,0.095768064
200,1436986572495,-8.098986,5.4964886,0.10055647
201,1436986572516,-8.145074,5.492897,0.11911154
202,1436986572607,-8.095394,5.470751,0.13946225
203,1436986572608,-7.967903,5.5162406,0.12509704
204,1436986572609,-7.9565306,5.557541,0.1376666
205,1436986572622,-7.9445596,5.559935,0.15801731
206,1436986572623,-7.8888946,5.555745,0.20470424
207,1436986572634,-7.876325,5.5743003,0.19093758
208,1436986572654,-7.901464,5.6006365,0.18555063
209,1436986572674,-7.934983,5.6179943,0.18195933
210,1436986572694,-7.912238,5.6305637,0.16879122
211,1436986572714,-7.868544,5.603629,0.15143326
212,1436986572734,-7.961918,5.623381,0.1412579
213,1436986572779,-7.9996266,5.5443726,0.19931729
214,1436986572780,-7.9888525,5.5102553,0.19871874
215,1436986572794,-7.9822683,5.4737434,0.21667525
216,1436986572814,-8.02297,5.4486046,0.20949265
217,1436986572834,-8.043321,5.442619,0.18016368
218,1436986572854,-8.066664,5.446809,0.19572599
219,1436986572876,-8.093599,5.433042,0.19512744
220,1436986572895,-8.088212,5.433641,0.18435353
221,1436986572915,-8.087015,5.4180784,0.18255788
222,1436986572935,-8.081628,5.4300494,0.20470424
223,1436986572954,-8.076241,5.407903,0.22325931
224,1436986572974,-8.051102,5.419874,0.21308395
225,1436986572994,-8.039131,5.431845,0.23104046
226,1436986573015,-8.01459,5.4539914,0.24061728
227,1436986573034,-8.013991,5.471948,0.22625206
228,1436986573055,-8.004415,5.4593782,0.23762453
229,1436986573075,-8.01459,5.4324436,0.23163901
230,1436986573094,-8.051102,5.4061074,0.23223756
231,1436986573115,-8.104373,5.355231,0.25797522
232,1436986573231,-8.172607,5.307347,0.26874915
233,1436986573232,-8.27077,5.209783,0.2837129
234,1436986573237,-8.392874,5.1158104,0.30406362
235,1436986573238,-8.474277,5.0242324,0.3441665
236,1436986573239,-8.565855,4.96318,0.38367084
237,1436986573240,-8.627506,4.872799,0.38726214
238,1436986573369,-8.640076,4.7884035,0.37708676
239,1436986573370,-8.76637,4.800973,0.39624038
240,1436986573371,-8.719683,4.741118,0.40402153
241,1436986573372,-8.561666,4.7279496,0.41060558
242,1436986573373,-8.368334,4.7536874,0.39264908
243,1436986573374,-8.191761,4.871003,0.3728969
244,1436986573376,-8.005013,5.04159,0.3357868
245,1436986573396,-7.807492,5.318719,0.21188685
246,1436986573415,-7.510012,5.591658,0.10115502
247,1436986573436,-7.1383123,5.801749,-0.016759412
248,1436986573460,-6.8707604,6.0202203,-0.090979666
249,1436986573479,-6.5391636,6.3362546,-0.20470424
250,1436986573499,-6.1704564,6.8462195,-0.40462008
251,1436986573516,-5.8262897,7.2951326,-0.59256494
252,1436986573540,-5.6682725,7.5812397,-0.6901286
253,1436986573560,-5.522825,7.714118,-0.7757214
254,1436986573580,-5.486912,7.7608047,-0.8678981
255,1436986573600,-5.4049106,7.839215,-0.96905315
256,1436986573617,-5.2498856,7.9541364,-1.1833342
257,1436986573637,-5.3282957,8.063671,-1.3030443
258,1436986573657,-5.3127337,8.358757,-1.5245079
259,1436986573678,-5.1481323,8.636484,-1.733402
260,1436986573696,-5.130774,8.702325,-1.7914615
261,1436986573823,-4.8614264,8.523358,-1.809418
262,1436986573824,-5.020641,8.492233,-1.816002
263,1436986573825,-5.142745,8.437167,-1.7932571
264,1436986573826,-5.0559554,8.356362,-1.8429368
265,1436986573827,-5.209783,8.342596,-1.9189527
266,1436986573828,-5.073313,8.357559,-2.0512323
267,1436986573837,-5.1481323,8.465299,-2.1021092
268,1436986573856,-5.1026425,8.428188,-2.1649568
269,1436986573875,-5.016451,8.41921,-2.223615
270,1436986573895,-4.8745947,8.458116,-2.3056161
271,1436986573915,-4.8739963,8.419808,-2.3169887
272,1436986573935,-5.0122614,8.415619,-2.2517467
273,1436986573955,-5.072715,8.275558,-2.1206641
274,1436986573975,-5.143344,8.199542,-2.0015526
275,1436986573995,-5.192425,8.236053,-1.9369092
276,1436986574015,-5.149928,8.143278,-1.8590976
277,1436986574036,-5.2439003,8.076839,-1.7609353
278,1436986574055,-5.9687448,8.246828,-1.6041151
279,1436986574075,-5.7484784,8.023568,-1.417966
280,1436986574096,-4.9781437,7.745841,-1.2545617
281,1436986574116,-4.5501804,7.6464815,-1.1115081
282,1436986574136,-4.609437,7.9888525,-1.0073603
283,1436986574156,-4.0946836,8.180388,-1.0432734
284,1436986574176,-3.8073792,8.732252,-1.0839748
285,1436986574196,-4.1138372,9.118916,-1.1240777
286,1436986574216,-4.915296,9.508572,-1.1378443
287,1436986574236,-5.04997,9.506178,-1.0402806
288,1436986574256,-4.4238863,9.216479,-1.033098
289,1436986574283,-4.5561657,9.194333,-0.908001
290,1436986574296,-4.5076833,9.126099,-0.79846627
291,1436986574316,-4.6004586,9.16261,-0.6793547
292,1436986574336,-4.2664676,9.106945,-0.6392518
293,1436986574356,-3.7588966,9.173983,-0.6464345
294,1436986574376,-3.430891,9.257181,-0.7020996
295,1436986574396,-3.1878796,9.266758,-0.7823054
296,1436986574419,-3.1352072,9.247604,-0.8678981
297,1436986574436,-3.2842462,9.106945,-0.9504981
298,1436986574456,-3.3967736,8.941146,-0.9600749
299,1436986574476,-3.5649664,8.6813755,-0.95947635
300,1436986574496,-3.8115692,8.350377,-0.9068039
301,1436986574516,-3.7421372,8.005612,-0.89543146
302,1436986574536,-3.803788,7.951742,-0.89543146
303,1436986574556,-4.731541,8.294712,-0.81642276
304,1436986574576,-4.923077,8.333617,-0.8146271
305,1436986574596,-4.768651,8.397662,-0.91338795
306,1436986574616,-4.9661727,8.492233,-0.92895025
307,1436986574639,-4.914099,8.4904375,-0.97743285
308,1436986574656,-5.039196,8.5473,-1.0175357
309,1436986574676,-4.950012,8.567651,-0.95708215
310,1436986574696,-4.7680526,8.48984,-0.91099375
311,1436986574716,-4.663905,8.387487,-0.84216046
312,1436986574738,-4.687248,8.282741,-0.6703765
313,1436986574757,-4.705205,8.296508,-0.51475334
314,1436986574778,-4.7830167,8.239047,-0.33877954
315,1436986574798,-4.7560816,8.157045,-0.17657238
316,1436986574820,-4.748899,8.089409,-0.065242
317,1436986574837,-4.6657004,8.045116,0.10654198
318,1436986574857,-4.590882,8.055291,0.25258827
319,1436986574877,-4.817134,8.240244,0.39743748
320,1436986574897,-5.7502737,8.837597,0.5201403
321,1436986574917,-5.439626,8.848371,0.60333884
322,1436986575009,-5.7724204,9.074024,0.6428431
323,1436986575010,-5.473145,8.9040365,0.6871359
324,1436986575011,-5.265448,8.620922,0.58657944
325,1436986575012,-3.46022,7.892486,0.19153613
326,1436986575022,-3.453636,7.776367,-0.27353755
327,1436986575036,-4.5902834,8.318055,-0.79726917
328,1436986575056,-5.298967,8.7849245,-1.3162124
329,1436986575076,-5.266645,9.215881,-1.7429788
330,1436986575096,-5.192425,9.519944,-1.8854338
331,1436986575116,-4.2598834,9.393052,-1.8315643
332,1436986575136,-3.8271315,9.488221,-1.8201919
333,1436986575156,-3.2321723,9.482236,-1.7944542
334,1436986575176,-3.1142578,9.391854,-1.7417817
335,1436986575196,-3.208829,9.191938,-1.6657659
336,1436986575220,-3.2172086,8.948928,-1.638831
337,1436986575238,-2.8491,8.711303,-1.6819267
338,1436986575257,-2.6288335,8.556278,-1.7298107
339,1436986575277,-2.6144683,8.371326,-1.7986441
340,1436986575297,-2.4181437,8.031349,-1.882441
341,1436986575317,-2.0644004,7.665635,-1.9560628
342,1436986575337,-2.6276364,7.6967597,-2.1080947
343,1436986575357,-2.8341362,7.7548194,-2.327164
344,1436986575377,-2.835932,7.845799,-2.6539726
345,1436986575397,-2.7246015,8.000824,-2.8694508
346,1436986575417,-2.9993362,8.103176,-2.8987796
347,1436986575437,-4.4274774,8.519767,-2.7629087
348,1436986575457,-5.5587378,8.89446,-2.520496
349,1436986575477,-3.9199066,8.441956,-2.4067712
350,1436986575497,-2.168548,7.6081743,-2.2230163
351,1436986575517,-0.7320272,7.0347633,-2.0087352
352,1436986575538,-2.1655555,8.027759,-1.7004818
353,1436986575653,-3.551798,9.8198185,-1.5951369
354,1436986575654,-2.7928362,10.724228,-1.6819267
355,1436986575655,-3.2758665,11.474212,-1.6256629
356,1436986575735,-2.593519,11.395802,-1.5765818
357,1436986575736,-2.6539726,11.446678,-1.388637
358,1436986575737,-2.6126726,11.392809,-1.2473791
359,1436986575738,-1.411382,10.971429,-1.3108255
360,1436986575739,-0.36750996,10.609905,-1.4915876
361,1436986575740,-0.36870706,10.23222,-1.7447745
362,1436986575741,-1.0648212,9.504981,-1.9536686
363,1436986575757,-1.6807296,8.9842415,-2.1739352
364,1436986575777,-2.4127567,8.669404,-2.1978772
365,1436986575797,-2.4756045,8.625112,-2.007538
366,1436986575817,-2.3906105,8.526351,-1.666963
367,1436986575837,-2.408567,8.310274,-1.2252327
368,1436986575857,-2.4271219,8.070854,-0.7469909
369,1436986575877,-3.015497,7.872135,-0.25378537
370,1436986575897,-3.2914288,7.5028296,0.12808979
371,1436986575917,-3.4009635,7.165247,0.39863458
372,1436986575937,-3.8534677,7.2670007,0.46327803
373,1436986575962,-4.1371803,7.7027454,0.47884035
374,1436986575978,-3.7666779,7.929596,0.45549688
375,1436986575998,-3.277662,8.100781,0.40342298
376,1436986576018,-2.6683378,8.142081,0.25917232
377,1436986576077,-2.1458032,8.032547,-0.0011971008
378,1436986576078,-3.0190883,8.438962,-0.26276365
379,1436986576079,-3.46022,8.418014,-0.44232875
380,1436986576097,-3.117849,8.51019,-0.6943185
381,1436986576117,-3.5284548,9.181764,-0.9672575
382,1436986576137,-4.9745526,10.2735195,-1.1186907
383,1436986576157,-5.207389,10.710462,-1.7256209
384,1436986576177,-2.9400797,10.691308,-2.2559366
385,1436986576197,-4.1611223,11.409568,-2.634819
386,1436986576219,-5.227141,11.941081,-2.8682537
387,1436986576238,-5.1223946,11.827955,-2.9083564
388,1436986576257,-3.8193502,11.343728,-2.8652608
389,1436986576277,-2.7982233,10.915764,-2.7700913
390,1436986576297,-2.0452468,10.114903,-2.5809495
391,1436986576318,-1.6358383,9.050082,-2.2918496
392,1436986576338,-1.7501614,8.073248,-1.9812019
393,1436986576357,-1.882441,7.398083,-1.614889
394,1436986576392,-1.939902,7.1945763,-1.389834
395,1436986576398,-2.0189106,7.441777,-1.2731167
396,1436986576418,-1.9081788,7.817667,-1.3108255
397,1436986576438,-2.123657,8.240842,-1.3311762
398,1436986576458,-1.7088615,8.303091,-1.3994108
399,1436986576478,-2.1212628,8.534132,-1.5622166
400,1436986576498,-2.6084828,8.622119,-1.780089
401,1436986576535,-3.1621418,8.471284,-1.8363527
402,1436986576541,-3.333926,8.187572,-1.8315643
403,1436986576565,-3.594894,7.828441,-1.7495629
404,1436986576578,-3.4739866,7.6590514,-1.6101006
405,1436986576598,-4.2700586,8.123527,-1.4496891
406,1436986576618,-3.4141316,8.3868885,-1.4885949
407,1436986576638,-3.5104983,9.080608,-1.5628152
408,1436986576658,-3.9546227,10.064626,-1.4012065
409,1436986576678,-2.949058,10.207679,-1.1683705
410,1436986576698,-2.8048072,10.687118,-0.9103952
411,1436986576718,-3.1202433,11.297639,-0.748188
