id,attr_time,attr_x,attr_y,attr_z
1,1436977877419,-8.375516,4.821324,0.3298013
2,1436977877439,-8.3821,4.8021703,0.3854665
3,1436977877459,-8.391078,4.76506,0.40581718
4,1436977877479,-8.421604,4.745308,0.42556936
5,1436977877499,-8.410232,4.76087,0.41599256
6,1436977877519,-8.459313,4.7830167,0.36750996
7,1436977877539,-8.42759,4.821324,0.30585927
8,1436977877559,-8.4108305,4.8428717,0.29568392
9,1436977877579,-8.368932,4.8620253,0.30286652
10,1436977877599,-8.356362,4.859032,0.3561375
11,1436977877619,-8.385692,4.8297033,0.3573346
12,1436977877639,-8.370728,4.820725,0.40282443
13,1436977877659,-8.379706,4.803367,0.38726214
14,1436977877679,-8.415619,4.779425,0.39624038
15,1436977877699,-8.437167,4.789002,0.36032736
16,1436977877721,-8.437167,4.775235,0.35254622
17,1436977877743,-8.428188,4.770447,0.34596214
18,1436977877764,-8.437167,4.7620673,0.34356794
19,1436977877781,-8.433576,4.741118,0.3561375
20,1436977877803,-8.479065,4.720767,0.37588966
21,1436977877821,-8.471284,4.7141833,0.39624038
22,1436977877910,-8.478467,4.7429137,0.3824737
23,1436977877911,-8.446145,4.772841,0.3561375
24,1436977877912,-8.470686,4.823119,0.3321955
25,1436977877913,-8.352771,4.827309,0.30346507
26,1436977877920,-8.361151,4.8602295,0.29328972
27,1436977877939,-8.344392,4.8620253,0.31783026
28,1436977877959,-8.418014,4.8440685,0.29867667
29,1436977877979,-8.55987,4.8440685,0.30286652
30,1436977877999,-8.455123,4.7925935,0.3681085
31,1436977878019,-8.353969,4.808754,0.3669114
32,1436977878040,-8.347384,4.8404775,0.34117374
33,1436977878065,-8.391677,4.8662148,0.35254622
34,1436977878079,-8.356961,4.8985367,0.3752911
35,1436977878099,-8.280347,4.8919525,0.36870706
36,1436977878119,-8.317456,4.9027267,0.37588966
37,1436977878139,-8.365939,4.8985367,0.3429694
38,1436977878159,-8.397662,4.9182887,0.3716998
39,1436977878179,-8.333019,4.8620253,0.36631286
40,1436977878199,-8.330027,4.863222,0.3537433
41,1436977878219,-8.409035,4.8668137,0.3609259
42,1436977878240,-8.388684,4.8279076,0.3405752
43,1436977878259,-8.358158,4.8338933,0.3645172
44,1436977878279,-8.347982,4.8458643,0.3633201
45,1436977878300,-8.394072,4.8524485,0.3429694
46,1436977878320,-8.409035,4.83509,0.3357868
47,1436977878340,-8.41921,4.7758336,0.36152446
48,1436977878360,-8.436568,4.7638626,0.3573346
49,1436977878380,-8.452729,4.7429137,0.374094
50,1436977878400,-8.476072,4.7429137,0.39504328
51,1436977878420,-8.44016,4.7668557,0.3878607
52,1436977878440,-8.436568,4.7740383,0.38307226
53,1436977878460,-8.404246,4.766257,0.41299978
54,1436977878480,-8.389283,4.7961845,0.37588966
55,1436977878500,-8.401254,4.805163,0.37110126
56,1436977878521,-8.385692,4.8219223,0.34955344
57,1436977878544,-8.416218,4.8015714,0.35194764
58,1436977878567,-8.402451,4.791396,0.3465607
59,1436977878581,-8.44375,4.7937903,0.34596214
60,1436977878714,-8.440758,4.7818193,0.3286042
61,1436977878715,-8.429984,4.753089,0.35194764
62,1436977878716,-8.418014,4.745308,0.37110126
63,1436977878717,-8.444948,4.7381253,0.3298013
64,1436977878718,-8.486847,4.742315,0.3172317
65,1436977878719,-8.4826565,4.7297454,0.320823
66,1436977878723,-8.450933,4.7494974,0.30047232
67,1436977878740,-8.4347725,4.7800236,0.3309984
68,1436977878760,-8.412626,4.785411,0.29987377
69,1436977878780,-8.409035,4.7896004,0.32022446
70,1436977878800,-8.362348,4.8297033,0.32142156
71,1436977878820,-8.376115,4.808754,0.29987377
72,1436977878840,-8.364143,4.8015714,0.30406362
73,1436977878860,-8.455722,4.796783,0.25857377
74,1436977878880,-8.588001,4.7985787,0.27473465
75,1436977878900,-8.515577,4.767454,0.3172317
76,1436977878920,-8.380903,4.744709,0.31783026
77,1436977878940,-8.367735,4.783615,0.3238158
78,1436977878960,-8.417415,4.8225207,0.30585927
79,1436977878980,-8.36175,4.803367,0.32621
80,1436977879000,-8.337209,4.8027687,0.3321955
81,1436977879021,-8.405443,4.8147397,0.33159694
82,1436977879040,-8.441956,4.780622,0.3417723
83,1436977879060,-8.461707,4.76925,0.3286042
84,1436977879082,-8.455123,4.783615,0.3321955
85,1436977879100,-8.411429,4.7788267,0.30765492
86,1436977879120,-8.444349,4.8069587,0.2873042
87,1436977879140,-8.464102,4.820725,0.30107087
88,1436977879160,-8.394072,4.8147397,0.3286042
89,1436977879181,-8.368334,4.8261123,0.3357868
90,1436977879201,-8.384495,4.818331,0.3196259
91,1436977879221,-8.443152,4.808754,0.30645782
92,1436977879241,-8.428188,4.799177,0.32142156
93,1436977879261,-8.441357,4.7949877,0.31483752
94,1436977879282,-8.445546,4.796783,0.35254622
95,1436977879301,-8.424597,4.771644,0.3633201
96,1436977879328,-8.389283,4.794389,0.3764882
97,1436977879343,-8.389881,4.8021703,0.41479546
98,1436977879365,-8.397064,4.7776294,0.40761283
99,1436977879383,-8.399458,4.7919946,0.39923313
100,1436977879402,-8.407838,4.7907977,0.39983168
101,1436977879432,-8.400655,4.815338,0.362123
102,1436977879443,-8.406641,4.823718,0.35075054
103,1436977879573,-8.387487,4.818331,0.34356794
104,1436977879574,-8.403049,4.7901993,0.3453636
105,1436977879575,-8.419808,4.770447,0.35553896
106,1436977879576,-8.428188,4.7518916,0.36152446
107,1436977879577,-8.4347725,4.7405195,0.3776853
108,1436977879578,-8.416218,4.7548847,0.37948096
109,1436977879582,-8.454525,4.759673,0.3693056
110,1436977879601,-8.450335,4.771045,0.362123
111,1436977879621,-8.425795,4.780622,0.31543607
112,1436977879641,-8.425196,4.7830167,0.3417723
113,1436977879661,-8.418014,4.7722425,0.33877954
114,1436977879681,-8.430583,4.766257,0.3477578
115,1436977879701,-8.43178,4.772841,0.3752911
116,1436977879721,-8.39467,4.7614684,0.3693056
117,1436977879741,-8.435371,4.7644615,0.37588966
118,1436977879761,-8.414422,4.748899,0.35194764
119,1436977879781,-8.450933,4.768651,0.31663316
120,1436977879801,-8.438364,4.7309427,0.33159694
121,1436977879821,-8.451532,4.732738,0.30166942
122,1436977879841,-8.607155,4.729147,0.320823
123,1436977879861,-8.5383215,4.6764746,0.39564183
124,1436977879881,-8.4108305,4.671686,0.40761283
125,1436977879901,-8.400057,4.6860514,0.40880993
126,1436977879921,-8.449138,4.7046065,0.39624038
127,1436977879941,-8.417415,4.7417164,0.37828386
128,1436977879961,-8.344392,4.7800236,0.36511576
129,1436977879981,-8.403648,4.8039656,0.32561144
130,1436977880001,-8.424597,4.8039656,0.29628247
131,1436977880021,-8.443152,4.7901993,0.28072014
132,1436977880041,-8.467693,4.7698483,0.29927522
133,1436977880061,-8.387487,4.727351,0.33399114
134,1436977880081,-8.429385,4.7387238,0.30645782
135,1436977880102,-8.495825,4.746505,0.2908955
136,1436977880122,-8.449138,4.75668,0.30286652
137,1436977880142,-8.412027,4.7937903,0.31364042
138,1436977880162,-8.382699,4.799177,0.25917232
139,1436977880182,-8.441956,4.7979803,0.24301147
140,1436977880202,-8.436568,4.8069587,0.24301147
141,1436977880228,-8.458116,4.741118,0.2741361
142,1436977880248,-8.488044,4.7046065,0.27353755
143,1436977880269,-8.489241,4.6662993,0.31064767
144,1436977880288,-8.488044,4.6950297,0.3184288
145,1436977880306,-8.48146,4.71538,0.32441434
146,1436977880330,-8.431181,4.747702,0.31543607
147,1436977880433,-8.44016,4.789002,0.29807812
148,1436977880434,-8.415619,4.784812,0.2777274
149,1436977880435,-8.410232,4.8147397,0.29388827
150,1436977880436,-8.398261,4.823119,0.27952304
151,1436977880437,-8.416816,4.8279076,0.272939
152,1436977880442,-8.364742,4.831499,0.25378537
153,1436977880462,-8.371326,4.845266,0.25857377
154,1436977880482,-8.400655,4.8458643,0.23942018
155,1436977880502,-8.397064,4.8422728,0.2741361
156,1436977880522,-8.41921,4.841076,0.25438392
157,1436977880542,-8.4234,4.8081555,0.2765303
158,1436977880568,-8.432977,4.795586,0.2873042
159,1436977880625,-8.423999,4.7698483,0.28790274
160,1436977880626,-8.446744,4.7764325,0.30945057
161,1436977880627,-8.420407,4.767454,0.29987377
162,1436977880644,-8.423999,4.781221,0.30226797
163,1436977880662,-8.447941,4.7907977,0.31543607
164,1436977880683,-8.416218,4.7842135,0.32022446
165,1436977880702,-8.424597,4.76506,0.338181
166,1436977880722,-8.432977,4.7860093,0.3573346
167,1436977880742,-8.380304,4.766257,0.3298013
168,1436977880762,-8.445546,4.7746367,0.35434186
169,1436977880782,-8.405443,4.7734394,0.3513491
170,1436977880802,-8.500014,4.7866077,0.31064767
171,1436977880822,-8.569447,4.7860093,0.3585317
172,1436977880842,-8.413225,4.754286,0.39384618
173,1436977880876,-8.333019,4.789002,0.39025488
174,1436977880882,-8.400057,4.815338,0.3728969
175,1436977880902,-8.395866,4.8189297,0.39145198
176,1436977880922,-8.327632,4.824915,0.40282443
177,1436977880942,-8.346786,4.851251,0.39145198
178,1436977880962,-8.380903,4.8919525,0.3597288
179,1436977880982,-8.37372,4.905121,0.338181
180,1436977881002,-8.3551655,4.917092,0.350152
181,1436977881022,-8.318055,4.8865657,0.3393781
182,1436977881042,-8.318055,4.8781857,0.3357868
183,1436977881062,-8.451532,4.8662148,0.32441434
184,1436977881083,-8.422802,4.782418,0.34596214
185,1436977881104,-8.407838,4.796783,0.35793316
186,1436977881125,-8.401853,4.794389,0.33758244
187,1436977881144,-8.425795,4.8165355,0.34237084
188,1436977881171,-8.435969,4.8159366,0.32621
189,1436977881279,-8.416816,4.8201265,0.34835634
190,1436977881280,-8.425795,4.787805,0.362123
191,1436977881281,-8.426393,4.8123455,0.3800795
192,1436977881282,-8.426393,4.820725,0.40641573
193,1436977881283,-8.34499,4.7884035,0.40222588
194,1436977881284,-8.357559,4.8165355,0.40641573
195,1436977881303,-8.313267,4.7776294,0.42556936
196,1436977881323,-8.349778,4.799776,0.39264908
197,1436977881343,-8.335413,4.8261123,0.3716998
198,1436977881363,-8.4664955,4.8039656,0.35913026
199,1436977881383,-8.485649,4.800973,0.3309984
200,1436977881403,-8.439561,4.819528,0.30286652
201,1436977881475,-8.404246,4.8069587,0.2765303
202,1436977881476,-8.419808,4.8380833,0.25318682
203,1436977881477,-8.419808,4.781221,0.27234045
204,1436977881491,-8.492233,4.7644615,0.34596214
205,1436977881503,-8.433576,4.723161,0.35673606
206,1436977881523,-8.431181,4.723161,0.35553896
207,1436977881543,-8.476072,4.7626657,0.33638534
208,1436977881563,-8.450335,4.7560816,0.36152446
209,1436977881583,-8.449737,4.766257,0.3477578
210,1436977881603,-8.428787,4.727351,0.37349546
211,1436977881623,-8.462905,4.7201686,0.3800795
212,1436977881643,-8.410232,4.7123876,0.41000703
213,1436977881663,-8.419808,4.7070007,0.40282443
214,1436977881683,-8.414422,4.684854,0.4189853
215,1436977881703,-8.456321,4.613028,0.41599256
216,1436977881723,-8.553286,4.6220064,0.40761283
217,1436977881743,-8.59279,4.6178164,0.45130703
218,1436977881763,-8.532935,4.575918,0.4345476
219,1436977881783,-8.4647,4.5819035,0.439336
220,1436977881803,-8.4904375,4.620809,0.45310268
221,1436977881823,-8.519767,4.5819035,0.46866497
222,1436977881843,-8.447941,4.608838,0.46806642
223,1436977881863,-8.48146,4.6321816,0.4237737
224,1436977881883,-8.525752,4.6232033,0.37708676
225,1436977881903,-8.534731,4.660912,0.36032736
226,1436977881925,-8.534132,4.655525,0.3489549
227,1436977881944,-8.489241,4.672883,0.32561144
228,1436977881966,-8.482059,4.6830587,0.31663316
229,1436977881988,-8.502409,4.6525326,0.30226797
230,1436977882081,-8.541913,4.6154222,0.3345897
231,1436977882082,-8.463503,4.593276,0.36152446
232,1436977882083,-8.504205,4.610634,0.33518824
233,1436977882084,-8.553286,4.624999,0.31902736
234,1436977882085,-8.520366,4.643554,0.2837129
235,1436977882103,-8.5383215,4.6417584,0.27234045
236,1436977882123,-8.544308,4.6375685,0.2753332
237,1436977882143,-8.531737,4.613028,0.27712885
238,1436977882163,-8.555679,4.5723267,0.31364042
239,1436977882183,-8.558673,4.5364137,0.34835634
240,1436977882203,-8.593987,4.5418005,0.3788824
241,1436977882225,-8.573038,4.5723267,0.33518824
242,1436977882274,-8.520366,4.619612,0.31064767
243,1436977882275,-8.506598,4.660912,0.2837129
244,1436977882291,-8.456919,4.650737,0.29568392
245,1436977882310,-8.456321,4.672883,0.2789245
246,1436977882324,-8.475474,4.63697,0.29269117
247,1436977882343,-8.532935,4.6004586,0.2837129
248,1436977882364,-8.55987,4.5579615,0.2813187
249,1436977882384,-8.556877,4.5687356,0.2669535
250,1436977882404,-8.587403,4.5633483,0.28909984
251,1436977882425,-8.6095495,4.560954,0.25258827
252,1436977882444,-8.589199,4.5801077,0.24600422
253,1436977882464,-8.561666,4.5741224,0.2645593
254,1436977882484,-8.500613,4.623802,0.24181437
255,1436977882504,-8.500014,4.6285906,0.26156655
256,1436977882524,-8.543709,4.659715,0.22685061
257,1436977882544,-8.496424,4.683657,0.1921347
258,1436977882564,-8.465299,4.71538,0.22266077
259,1436977882584,-8.418612,4.722563,0.20470424
260,1436977882604,-8.413225,4.6645036,0.260968
261,1436977882624,-8.473679,4.5962687,0.3477578
262,1436977882644,-8.560468,4.561553,0.37110126
263,1436977882664,-8.639477,4.5232453,0.41060558
264,1436977882686,-8.547898,4.5358152,0.40162733
265,1436977882706,-8.475474,4.5657425,0.3716998
266,1436977882726,-8.474875,4.614824,0.38367084
267,1436977882745,-8.512584,4.609437,0.41958386
268,1436977882766,-8.525154,4.6579194,0.39564183
269,1436977882785,-8.496424,4.703409,0.34596214
270,1436977882880,-8.483255,4.6962266,0.34476504
271,1436977882881,-8.462306,4.657321,0.31244332
272,1436977882882,-8.546701,4.663905,0.28431144
273,1436977882883,-8.5143795,4.6279917,0.33039984
274,1436977882885,-8.450335,4.617218,0.3597288
275,1436977882904,-8.444349,4.653131,0.31124622
276,1436977882924,-8.4664955,4.6561236,0.3776853
277,1436977882944,-8.415619,4.6938324,0.3788824
278,1436977882964,-8.426393,4.722563,0.32680854
279,1436977882984,-8.413823,4.7381253,0.2837129
280,1436977883007,-8.441956,4.747103,0.2669535
281,1436977883025,-8.475474,4.7405195,0.19033903
282,1436977883174,-8.53892,4.711789,0.20590134
283,1436977883175,-8.536526,4.687847,0.22325931
284,1436977883176,-8.5622635,4.64116,0.24899697
285,1436977883177,-8.535928,4.654328,0.24899697
286,1436977883178,-8.540117,4.660912,0.2657564
287,1436977883179,-8.495825,4.6680946,0.27593175
288,1436977883180,-8.463503,4.6722846,0.2885013
289,1436977883188,-8.483853,4.7219644,0.28072014
290,1436977883204,-8.483853,4.724957,0.28550854
291,1436977883225,-8.464102,4.7459064,0.25498247
292,1436977883245,-8.432379,4.7261543,0.25677812
293,1436977883265,-8.421006,4.7219644,0.27114335
294,1436977883284,-8.467094,4.708796,0.23762453
295,1436977883305,-8.48984,4.7004166,0.24899697
296,1436977883325,-8.496424,4.666898,0.21787235
297,1436977883345,-8.519767,4.6513352,0.25019407
298,1436977883366,-8.54311,4.584896,0.24061728
299,1436977883385,-8.565256,4.5657425,0.2717419
300,1436977883405,-8.5886,4.5483847,0.28191724
301,1436977883425,-8.58022,4.583101,0.2681506
302,1436977883445,-8.5473,4.601057,0.25498247
303,1436977883465,-8.483255,4.630985,0.24121583
304,1436977883485,-8.464102,4.654927,0.24121583
305,1436977883505,-8.542512,4.6471453,0.24660277
306,1436977883526,-8.461109,4.6405616,0.26755205
307,1436977883548,-8.549096,4.6321816,0.25797522
308,1436977883570,-8.5143795,4.6082397,0.272939
309,1436977883590,-8.528745,4.6232033,0.25198972
310,1436977883609,-8.667608,4.663905,0.24181437
311,1436977883632,-8.550293,4.6046486,0.31004912
312,1436977883792,-8.46051,4.6082397,0.34356794
313,1436977883793,-8.470087,4.623802,0.34237084
314,1436977883794,-8.516774,4.622605,0.36032736
315,1436977883795,-8.486847,4.6016555,0.38486794
316,1436977883796,-8.491635,4.5884876,0.3878607
317,1436977883797,-8.505402,4.572925,0.38606504
318,1436977883798,-8.554482,4.545392,0.39803603
319,1436977883799,-8.576031,4.5537715,0.40821138
320,1436977883805,-8.575432,4.5962687,0.3842694
321,1436977883825,-8.487445,4.5896845,0.3669114
322,1436977883845,-8.519168,4.630386,0.35673606
323,1436977883865,-8.546701,4.609437,0.35793316
324,1436977883885,-8.511387,4.64116,0.3764882
325,1436977883905,-8.455123,4.6800656,0.33279404
326,1436977883926,-8.4347725,4.717176,0.28790274
327,1436977883945,-8.449737,4.7441106,0.26874915
328,1436977883965,-8.463503,4.7417164,0.260968
329,1436977883985,-8.46051,4.7040076,0.29388827
330,1436977884005,-8.5060005,4.6591167,0.3369839
331,1436977884025,-8.459911,4.5992613,0.3705027
332,1436977884045,-8.496424,4.5513773,0.40821138
333,1436977884065,-8.629301,4.4783545,0.43155485
334,1436977884085,-8.748413,4.361637,0.44891283
335,1436977884105,-8.859145,4.2916064,0.42916065
336,1436977884125,-8.824429,4.2640734,0.40043023
337,1436977884145,-8.786121,4.2664676,0.35553896
338,1436977884165,-8.692748,4.3520603,0.29269117
339,1436977884185,-8.817844,4.446631,0.3226187
340,1436977884205,-8.7370405,4.5352163,0.2705448
341,1436977884225,-8.429385,4.745308,0.044891283
342,1436977884245,-8.446145,5.0625396,0.05267244
343,1436977884265,-8.32404,5.241506,-0.023343466
344,1436977884286,-8.087613,5.587468,-0.039504327
345,1436977884305,-7.767389,5.7586536,-0.044292733
346,1436977884326,-7.5243773,5.9717374,0.02813187
347,1436977884346,-7.4561424,5.971139,0.18614918
348,1436977884366,-7.4286094,5.892729,0.3561375
349,1436977884386,-7.469909,5.911284,0.43394905
350,1436977884406,-7.4872675,5.868787,0.57999533
351,1436977884427,-7.4842744,5.8268886,0.66020113
352,1436977884449,-7.4327993,5.8346696,0.7386112
353,1436977884467,-7.3208704,5.8562174,0.748188
354,1436977884488,-7.1610575,6.095039,0.6560113
355,1436977884583,-7.1407065,6.329072,0.54767364
356,1436977884584,-7.0706763,6.569091,0.32202014
357,1436977884585,-7.0407486,6.839636,0.094570965
358,1436977884586,-6.895301,6.89171,-0.02813187
359,1436977884587,-6.8563952,6.938995,-0.14963761
360,1436977884606,-7.0832458,6.8462195,-0.10295067
361,1436977884632,-6.9796963,6.6905966,-0.05686229
362,1436977884652,-7.043741,6.6427126,0.008379706
363,1436977884666,-7.167641,6.657078,0.05327099
364,1436977884686,-7.043143,6.585252,0.0700304
365,1436977884706,-6.6983776,6.5271926,0.089782566
366,1436977884726,-6.5750766,6.4619503,-0.012569559
367,1436977884746,-6.815694,6.297349,-0.05686229
368,1436977884766,-7.197569,6.183026,-0.044891283
369,1436977884786,-7.7470384,6.4805055,-0.11731588
370,1436977884806,-7.3071036,6.50744,-0.13706805
371,1436977884826,-6.9970546,6.7091517,-0.22325931
372,1436977884846,-6.913856,6.8186865,-0.23822308
373,1436977884866,-7.1963716,7.065888,-0.44711718
374,1436977884886,-7.1849995,7.252037,-0.60693014
375,1436977884906,-7.080253,7.253234,-0.7529764
376,1436977884926,-6.987478,7.271789,-0.9008184
377,1436977884946,-7.007828,7.3088994,-1.0480618
378,1436977884966,-6.932411,7.0515227,-1.1067197
379,1436977884986,-6.9000893,6.9665284,-1.1444284
380,1436977885006,-6.8402343,6.7749925,-1.1569979
381,1436977885026,-7.0383544,6.306926,-1.0935516
382,1436977885046,-7.318476,6.1758432,-1.1791444
383,1436977885066,-7.442376,5.952584,-1.2030864
384,1436977885086,-7.69257,5.9621606,-1.2300211
385,1436977885106,-7.801506,5.9651537,-1.2773066
386,1436977885126,-7.6345105,5.9292407,-1.264737
387,1436977885146,-7.3885064,6.1836243,-1.2916719
388,1436977885166,-7.1353197,6.461352,-1.1887212
389,1436977885189,-7.2963295,6.863578,-1.2060791
390,1436977885210,-7.354389,7.337031,-1.2904748
391,1436977885229,-7.2268977,7.474099,-1.2898762
392,1436977885249,-7.1909847,7.578247,-1.282095
393,1436977885269,-7.3867106,7.908048,-1.2599486
394,1436977885369,-7.4687123,8.081029,-1.1845313
395,1436977885370,-7.7829514,8.201937,-1.1414356
396,1436977885371,-8.583213,8.290522,-1.009156
397,1436977885372,-8.539519,8.020576,-0.7763199
398,1436977885373,-8.778939,7.9391727,-0.5518635
399,1436977885392,-10.23222,8.707113,-0.39025488
400,1436977885407,-11.110891,9.060856,-0.2825158
401,1436977885427,-10.000581,8.860342,-0.04369418
402,1436977885447,-7.85358,8.081628,0.37110126
403,1436977885467,-5.585074,7.514202,0.7104794
404,1436977885487,-5.1882353,7.6488757,0.8948329
405,1436977885512,-5.597045,7.381324,1.13964
406,1436977885674,-6.31351,7.409456,1.2515689
407,1436977885675,-6.3829417,7.3059063,1.2000936
408,1436977885676,-5.834071,7.0688806,1.1468226
409,1436977885677,-5.9998693,7.0407486,1.0199299
410,1436977885678,-5.8388596,6.715137,0.9660604
411,1436977885679,-5.6527104,6.5385647,0.7637503
412,1436977885680,-5.1822495,6.4870896,0.6757634
413,1436977885681,-4.696825,6.4846954,0.60693014
414,1436977885687,-4.5316253,6.3829417,0.52852005
415,1436977885707,-4.483143,6.1848216,0.40821138
416,1436977885727,-4.7441106,5.957971,0.39145198
