id,attr_time,attr_x,attr_y,attr_z
1,1436164600922,-3.4985273,9.029732,-0.011971008
2,1436164600940,-3.5009215,9.074623,0.0005985504
3,1436164600962,-3.469797,9.050681,0.037110128
4,1436164600984,-3.430891,9.062054,0.04369418
5,1436164601000,-3.3943794,9.090784,0.004189853
6,1436164601021,-3.3680432,9.130288,-0.009576807
7,1436164601043,-3.3782187,9.18715,-0.045489833
8,1436164601063,-3.3770216,9.205706,-0.0664391
9,1436164601083,-3.3758245,9.156625,-0.04369418
10,1436164601103,-3.394978,9.136872,-0.030526072
11,1436164601120,-3.426701,9.164406,-0.037708677
12,1436164601143,-3.3859997,9.135675,-0.018555064
13,1436164601164,-3.3584664,9.181764,-0.031124622
14,1436164601181,-3.3063924,9.154829,-0.011372458
15,1436164601203,-3.3249476,9.156026,-0.008379706
16,1436164601223,-3.34051,9.168595,-0.01436521
17,1436164601243,-3.347094,9.139266,-0.008978256
18,1436164601263,-3.3824084,9.165603,-0.025737667
19,1436164601283,-3.3883939,9.147048,0.04070143
20,1436164601302,-3.3614593,9.130887,0.029927522
21,1436164601323,-3.3770216,9.108142,0.0712275
22,1436164601342,-3.366846,9.111135,0.061650693
23,1436164601363,-3.3662477,9.126099,0.0700304
24,1436164601385,-3.371036,9.105747,0.0688333
25,1436164601403,-3.366846,9.109339,0.038905777
26,1436164601420,-3.3824084,9.138668,-0.0023942017
27,1436164601443,-3.4183214,9.143456,-0.038307227
28,1436164601514,-3.448249,9.118318,-0.060453594
29,1436164601515,-3.4877534,9.103952,-0.05925649
30,1436164601516,-3.5230677,9.072228,-0.05865794
31,1436164601520,-3.5314474,9.0842,-0.04189853
32,1436164601547,-3.5236664,9.045294,-0.04189853
33,1436164601581,-3.5296519,9.088389,-0.06584055
34,1436164601582,-3.4919431,9.097966,-0.051475335
35,1436164601602,-3.453636,9.118318,-0.06464344
36,1436164601624,-3.4554317,9.128492,-0.0700304
37,1436164601645,-3.4757824,9.147048,-0.107739076
38,1436164601663,-3.5003228,9.173983,-0.089782566
39,1436164601683,-3.5087025,9.100959,-0.0676362
40,1436164601701,-3.5033157,9.036914,-0.032920275
41,1436164601722,-3.502717,9.033323,0.0005985504
42,1436164601740,-3.4662056,9.007586,-0.008379706
43,1436164601762,-3.3985693,9.084799,-0.02873042
44,1436164601785,-3.389591,9.109339,-0.0712275
45,1436164601803,-3.4045548,9.187749,-0.10594343
46,1436164601823,-3.4207156,9.209895,-0.1376666
47,1436164601843,-3.4183214,9.183559,-0.16519992
48,1436164601862,-3.459023,9.097368,-0.12808979
49,1436164601882,-3.478775,9.065644,-0.110731825
50,1436164601903,-3.5697548,9.083003,-0.109534726
51,1436164601921,-3.5565867,9.057265,-0.11611878
52,1436164601942,-3.5290532,9.096769,-0.12868834
53,1436164601962,-3.4925418,9.097966,-0.13826515
54,1436164601985,-3.4584243,9.120711,-0.17537527
55,1436164602005,-3.4452562,9.13388,-0.1945289
56,1436164602026,-3.4793737,9.100959,-0.18495208
57,1436164602044,-3.555988,9.116522,-0.20649989
58,1436164602060,-3.6170402,9.115923,-0.2220622
59,1436164602081,-3.6164417,9.101558,-0.20530279
60,1436164602102,-3.614646,9.091382,-0.21068975
61,1436164602123,-3.5595794,9.059659,-0.17417817
62,1436164602143,-3.5685577,9.037513,-0.15263036
63,1436164602213,-3.5571852,9.059061,-0.15263036
64,1436164602214,-3.5763388,9.062054,-0.1316811
65,1436164602215,-3.5889084,9.086594,-0.15801731
66,1436164602223,-3.5895069,9.090784,-0.14903906
67,1436164602241,-3.6050692,9.081207,-0.12749124
68,1436164602263,-3.578733,9.037513,-0.10295067
69,1436164602281,-3.5966895,9.053674,-0.12090719
70,1436164602304,-3.638588,9.01776,-0.10534488
71,1436164602321,-3.645172,9.017162,-0.08559271
72,1436164602342,-3.7062242,9.060258,-0.090381116
73,1436164602368,-3.655946,9.025542,-0.076015905
74,1436164602382,-3.6337996,9.000402,-0.048482586
75,1436164602402,-3.6409822,9.025542,-0.036511578
76,1436164602424,-3.6326025,9.042301,-0.04309563
77,1436164602444,-3.643975,9.085996,-0.039504327
78,1436164602464,-3.6577415,9.041702,-0.019153614
79,1436164602484,-3.66253,8.987235,0.038905777
80,1436164602504,-3.6355953,8.977658,0.08499416
81,1436164602524,-3.570952,8.953716,0.09756372
82,1436164602544,-3.4901476,9.001001,0.095169514
83,1436164602564,-3.4572272,9.075222,0.074220255
84,1436164602584,-3.4799721,9.128492,0.017357962
85,1436164602601,-3.477578,9.18715,-0.020350715
86,1436164602624,-3.4739866,9.141661,-0.05207389
87,1436164602644,-3.5110967,9.076419,-0.018555064
88,1436164602664,-3.5703533,9.059659,-0.019153614
89,1436164602683,-3.6254199,9.076419,-0.008379706
90,1436164602704,-3.602675,8.990826,-0.0035913025
91,1436164602724,-3.5769374,9.033323,-0.037110128
92,1436164602744,-3.5757403,9.036316,-0.054468088
93,1436164602764,-3.5751417,9.115324,-0.073023155
94,1436164602782,-3.5595794,9.120711,-0.11432313
95,1436164602801,-3.5942953,9.068039,-0.10534488
96,1436164602823,-3.6116533,9.063849,-0.12030864
97,1436164602841,-3.6296098,9.037513,-0.089184016
98,1436164602861,-3.6822822,9.011177,-0.076614454
99,1436164602892,-3.6984432,8.971672,-0.09636662
100,1436164602947,-3.757101,8.953117,-0.07062895
101,1436164602948,-3.7367504,8.975264,-0.0712275
102,1436164602949,-3.693056,9.018958,-0.11492168
103,1436164602971,-3.650559,9.076419,-0.16220717
104,1436164602981,-3.650559,9.097368,-0.18674773
105,1436164603010,-3.6487634,9.129689,-0.16938977
106,1436164603022,-3.6673183,9.085996,-0.15562311
107,1436164603042,-3.7259765,9.0554695,-0.11971009
108,1436164603064,-3.7511156,8.983644,-0.06823475
109,1436164603082,-3.7349546,8.9519205,-0.044891283
110,1436164603102,-3.7217865,8.954314,-0.05327099
111,1436164603122,-3.7223852,8.990228,-0.05207389
112,1436164603145,-3.6750996,9.001001,-0.061650693
113,1436164603164,-3.7283707,9.030331,-0.092775315
114,1436164603185,-3.7487214,9.062054,-0.12030864
115,1436164603202,-3.733159,9.074024,-0.10534488
116,1436164603224,-3.7307649,9.028535,-0.08738836
117,1436164603245,-3.7475243,8.937555,-0.038905777
118,1436164603265,-3.7469256,8.969278,-0.010175358
119,1436164603285,-3.6894648,8.945934,0.02813187
120,1436164603302,-3.6349967,9.006389,0.020949265
121,1436164603324,-3.6116533,9.039309,0.0077811554
122,1436164603345,-3.5745432,9.050082,0.007182605
123,1436164603363,-3.5727475,9.063849,-0.017956512
124,1436164603385,-3.5984852,9.098565,-0.0664391
125,1436164603403,-3.6721067,9.060258,-0.090381116
126,1436164603422,-3.743933,9.038112,-0.11731588
127,1436164603443,-3.8139634,9.052477,-0.11851298
128,1436164603467,-3.764882,8.93576,-0.08619126
129,1436164603487,-3.7373488,9.0016,-0.02932897
130,1436164603508,-3.681085,9.005191,-0.019153614
131,1436164603524,-3.627814,9.0016,-0.015562311
132,1436164603541,-3.6774938,9.021352,-0.019153614
133,1436164603562,-3.7630866,9.060258,-0.053869538
134,1436164603582,-3.8073792,8.9842415,-0.08798691
135,1436164603603,-3.9097314,8.969876,-0.1412579
136,1436164603625,-3.9043443,8.933365,-0.17717093
137,1436164603705,-3.821146,8.850765,-0.21068975
138,1436164603706,-3.834314,8.908226,-0.32621
139,1436164603707,-3.7924154,8.911219,-0.39444473
140,1436164603708,-3.7056258,9.005191,-0.44771573
141,1436164603722,-3.6595373,9.200318,-0.56982
142,1436164603744,-3.632004,9.279925,-0.66139823
143,1436164603762,-3.6116533,9.284714,-0.70509243
144,1436164603782,-3.5763388,9.192537,-0.7164649
145,1436164603804,-3.6134489,9.186552,-0.7146692
146,1436164603824,-3.602675,9.035717,-0.6302736
147,1436164603844,-3.6248214,8.89446,-0.4818331
148,1436164603864,-3.5649664,8.787319,-0.38067806
149,1436164603883,-3.401562,8.81605,-0.2885013
150,1436164603905,-3.2435448,8.896255,-0.22266077
151,1436164603946,-3.193865,9.050681,-0.16280572
152,1436164603947,-3.1615434,9.211691,-0.1316811
153,1436164603982,-3.0986955,9.246407,-0.010175358
154,1436164603983,-3.0466216,9.268554,0.12808979
155,1436164604002,-3.028665,9.280524,0.24660277
156,1436164604022,-2.9694088,9.149442,0.40402153
157,1436164604042,-3.116652,9.419987,0.57161564
158,1436164604064,-2.7539306,9.212888,0.7044938
159,1436164604086,-2.6126726,9.019556,0.92535895
160,1436164604103,-2.5079262,8.990228,1.158195
161,1436164604125,-2.697667,9.277532,1.3365631
162,1436164604144,-2.8215668,9.496002,1.5466543
163,1436164604163,-3.5392287,10.412383,1.5520413
164,1436164604183,-3.003526,10.2657385,1.6142905
165,1436164604207,-2.6390088,9.911396,1.6118963
166,1436164604226,-2.2720973,9.680356,1.620276
167,1436164604248,-2.059612,9.349358,1.5861586
168,1436164604264,-1.882441,8.82802,1.6089035
169,1436164604283,-2.2930467,8.868123,1.4951789
170,1436164604304,-2.4540567,8.698134,1.3102269
171,1436164604323,-2.5767596,8.418014,1.1893197
172,1436164604344,-2.6898856,8.488044,1.1486182
173,1436164604364,-2.779668,8.822633,1.0953473
174,1436164604405,-2.5360582,8.69993,1.1210849
175,1436164604406,-2.3481133,8.740632,1.1282675
176,1436164604423,-2.0787656,8.807071,1.1438298
177,1436164604445,-1.9135658,8.925584,1.1833342
178,1436164604463,-1.702876,8.935161,1.3215994
179,1436164604483,-1.7034745,8.994417,1.4862007
180,1436164604503,-1.8016368,9.248801,1.6035166
181,1436164604523,-1.7764976,9.52593,1.7848774
182,1436164604546,-1.9219455,9.8042555,2.0009542
183,1436164604563,-1.9644425,9.829395,2.2290018
184,1436164604584,-2.3828292,10.502765,2.4672248
185,1436164604610,-2.9622262,12.54023,2.60549
186,1436164604623,-3.1759086,14.395737,2.7515364
187,1436164604643,-3.657143,15.59583,2.456451
188,1436164604664,-2.4779987,14.829685,2.3427265
189,1436164604684,-2.3277626,15.626954,1.7465701
190,1436164604703,0.4369418,15.179837,0.9463082
191,1436164604724,3.6822822,12.83352,0.42437226
192,1436164604743,5.8825536,9.88506,0.16460137
193,1436164604764,4.622605,9.379884,0.054468088
194,1436164604783,1.5933412,10.759542,-0.7254431
195,1436164604803,0.7541735,10.810419,-1.0462662
196,1436164604823,0.33638534,10.685921,-0.95229375
197,1436164604844,-0.6368576,11.394006,-0.878672
198,1436164604863,-0.95229375,11.199477,-0.6159084
199,1436164604893,-0.64463884,10.05445,-0.23942018
200,1436164604903,-0.6757634,8.871715,0.0688333
201,1436164604923,-0.8702923,7.77936,0.28191724
202,1436164604945,-0.99419224,6.6642604,0.39085343
203,1436164604966,-1.2485762,5.887342,0.44951138
204,1436164604984,-1.5801731,5.5018754,0.3537433
205,1436164605003,-1.7776948,5.1906295,0.27353755
206,1436164605024,-1.899799,5.0362034,0.09935937
207,1436164605043,-2.292448,5.140351,0.13826515
208,1436164605064,-3.0544028,6.0447607,0.12389994
209,1436164605083,-3.3123782,6.5349736,0.14425065
210,1436164605103,-3.0669725,6.4745197,0.36511576
211,1436164605124,-3.245939,7.462128,0.545878
212,1436164605165,-3.645172,9.606734,0.6775591
213,1436164605166,-3.776853,11.733982,0.66379243
214,1436164605185,-3.9121256,13.054983,0.6123171
215,1436164605204,-3.7223852,14.192827,0.36990416
216,1436164605224,-2.7862523,14.541184,0.76195467
217,1436164605244,-2.5264814,15.046959,0.7212533
218,1436164605264,-1.7375919,13.735536,1.4131776
219,1436164605284,-0.641646,12.025476,2.1517887
220,1436164605308,0.51116204,10.93791,3.3375173
221,1436164605329,-0.3854665,12.576741,3.567959
222,1436164605344,0.50397944,11.856686,3.627814
223,1436164606563,-0.09876082,11.490373,3.2249897
224,1436164606564,-1.0923545,11.546637,2.3391352
225,1436164606565,-2.1266496,11.098322,1.6478093
226,1436164606566,-2.4756045,10.161591,1.0019734
227,1436164606567,-2.0039468,8.6017685,0.6961141
228,1436164606568,-1.572392,6.974908,0.39743748
229,1436164606569,-1.0809821,5.301361,0.19512744
230,1436164606570,-1.3730747,4.4645877,0.05805939
231,1436164606571,-1.8273745,4.4448357,-0.18734628
232,1436164606572,-2.2936451,4.585495,-0.18555063
233,1436164606573,-2.4762032,4.624999,-0.2112883
234,1436164606574,-2.2349873,4.4723687,0.08020575
235,1436164606575,-2.5342624,4.8733974,0.35793316
236,1436164606576,-3.0951042,5.9064956,0.6332663
237,1436164606577,-2.9562407,6.603208,0.8026561
238,1436164606578,-2.9191303,7.441179,1.3449428
239,1436164606579,-4.107253,10.254366,1.6968905
240,1436164606580,-4.979341,12.841899,1.6897079
241,1436164606581,-5.57849,14.043789,1.9997569
242,1436164606582,-5.9519854,15.342045,1.9327193
243,1436164606583,-5.1140146,15.668255,1.459266
244,1436164606584,-3.7966053,14.708778,1.1563994
245,1436164606585,-2.6270378,13.912706,0.32441434
246,1436164606586,0.1340753,10.629059,-0.10594343
247,1436164606587,-0.4357447,9.535507,0.108337626
248,1436164606588,-3.0855274,11.200674,-1.3078327
249,1436164606589,-3.2597055,10.691906,-1.3623008
250,1436164606590,-4.1036615,11.317391,-1.5514427
251,1436164606591,-3.4326868,11.835137,-1.6232687
252,1436164606592,-2.593519,10.881048,-1.3790601
253,1436164606593,-1.5598224,9.333197,-0.95708215
254,1436164606594,-1.103727,7.8302364,-0.54527944
255,1436164606595,-1.2880806,6.4505777,-0.08319851
256,1436164606596,-1.5969325,5.2235494,0.25378537
257,1436164606597,-1.6938977,4.228759,0.46088383
258,1436164606598,-1.8722657,3.5344403,0.65900403
259,1436164606599,-2.1745336,3.4141316,0.7356185
260,1436164606600,-2.1883004,3.4608185,0.7661445
261,1436164606601,-2.5683799,3.9683893,0.7368156
262,1436164606602,-2.7048495,4.667496,0.6464345
263,1436164606603,-3.7152026,6.3488245,0.6697779
264,1436164606604,-4.747702,8.689157,0.64583594
265,1436164606605,-5.2259436,10.626664,0.5201403
266,1436164606606,-5.4791307,12.103887,0.4417302
267,1436164606607,-5.949591,14.218565,0.074220255
268,1436164606608,-4.9242744,14.8272915,-0.13227965
269,1436164606609,-3.875614,13.739126,0.39683893
270,1436164606610,-4.7925935,15.392921,0.623091
271,1436164606611,-2.2780828,12.736554,0.99658644
272,1436164606612,-0.7128736,9.114127,1.8507179
273,1436164606613,-3.494936,10.571598,2.5623944
274,1436164606614,-4.875193,13.257294,2.3852234
275,1436164606615,-3.1884782,11.629236,2.8868086
276,1436164606616,-3.0364463,11.309011,2.8269536
277,1436164606617,-3.0550013,11.54065,2.3475149
278,1436164606618,-3.4410665,10.544662,1.834557
279,1436164606619,-3.5853171,9.533711,1.1761516
280,1436164606620,-3.1920695,8.343194,0.6254852
281,1436164606621,-2.4426842,6.581062,0.31902736
282,1436164606622,-1.650802,4.6022544,0.11252748
283,1436164606623,-1.42455,3.3255463,0.10474633
284,1436164606624,-2.066196,3.4572272,0.09995792
285,1436164606625,-2.1260512,3.696049,0.08559271
286,1436164606626,-2.331354,3.8468835,0.31304187
287,1436164606643,-2.5103204,4.6261964,0.44891283
288,1436164606663,-2.2637177,5.089474,0.700304
289,1436164606683,-1.596334,5.072715,1.2066777
290,1436164606703,-2.4241292,6.7241154,1.5496471
291,1436164606723,-3.41892,9.713276,1.6519991
292,1436164606743,-4.2778397,12.086529,1.7363948
293,1436164606764,-5.3636103,13.632585,2.055422
294,1436164606784,-6.3548098,15.296555,2.1086931
295,1436164606804,-6.3667808,16.068087,1.7872716
296,1436164606824,-5.583278,15.612589,1.6130934
297,1436164606846,-4.068946,14.817116,0.8523358
298,1436164606866,-0.6338649,11.313202,0.40761283
299,1436164606887,-0.022744916,9.594764,0.27353755
300,1436164606909,-2.7257986,11.668142,-0.9235633
301,1436164606928,-3.731962,12.191874,-1.3323733
302,1436164606945,-4.3688197,11.903971,-1.7429788
303,1436164606965,-4.034828,11.642405,-1.8956091
304,1436164606986,-3.5284548,10.857705,-1.8183962
305,1436164607006,-2.0721815,8.960898,-1.4796166
306,1436164607027,-1.0247183,7.0012445,-1.0079589
307,1436164607047,-0.7392098,5.683236,-0.62488663
308,1436164607069,-0.7882909,4.964976,-0.35075054
309,1436164607085,-0.7140707,4.2239704,-0.15562311
310,1436164607109,-0.7068881,3.3758245,0.09816227
311,1436164607132,-1.2515689,3.3039982,0.25917232
312,1436164607144,-1.6585833,3.6750996,0.2813187
313,1436164607167,-1.9003977,3.8911762,0.4985925
314,1436164607187,-2.6360161,5.455787,0.7715315
315,1436164607205,-3.1543608,7.5225816,0.7433996
316,1436164607226,-3.4877534,9.030331,1.0097545
317,1436164607245,-4.8907557,11.877635,1.1558008
318,1436164607269,-5.559935,15.099033,1.0001777
319,1436164607287,-6.005256,16.790537,1.1599907
320,1436164607306,-4.7680526,15.688605,1.602918
321,1436164607327,-2.171541,13.321339,2.5252843
322,1436164607346,-1.489792,13.46918,2.8203697
323,1436164607365,-0.30825347,11.762115,2.6623523
324,1436164607390,0.091578215,9.363723,3.1735144
325,1436164607407,-2.7742813,11.550227,2.7790697
326,1436164607429,-2.6437972,11.841123,2.96881
327,1436164607449,-2.3558946,10.812215,3.1932666
328,1436164607469,-3.153762,11.578958,2.6641479
329,1436164607489,-3.044826,10.961852,2.1571758
330,1436164607509,-2.473809,9.184157,1.6873137
331,1436164607527,-1.745373,7.4549456,1.3688848
332,1436164607547,-1.2006922,6.1824274,1.033098
333,1436164607566,-0.7218518,5.2325277,0.6919243
334,1436164607590,-0.56323594,4.584896,0.47644615
335,1436164607611,-0.75716627,4.332308,0.1945289
336,1436164607634,-1.1240777,4.2479124,-0.109534726
337,1436164607649,-1.5502456,4.0785227,-0.22924481
338,1436164607668,-2.042254,4.147356,-0.4189853
339,1436164607687,-2.4343045,4.4220905,-0.3878607
340,1436164607711,-3.3518825,5.7257333,-0.3298013
341,1436164607729,-3.8492777,7.3909006,-0.073621705
342,1436164607747,-3.6302083,8.890269,0.38307226
343,1436164607769,-3.7942111,10.657789,0.7038953
344,1436164607786,-4.478953,12.925696,1.0893618
345,1436164607820,-6.021417,16.201563,1.2599486
346,1436164607837,-7.189189,18.828003,0.79726917
347,1436164607902,-6.1129956,18.103157,0.8834604
348,1436164607911,-4.586692,17.011402,0.20530279
349,1436164607912,-0.11133038,12.758102,0.074220255
350,1436164607913,2.4887726,9.258977,-0.32022446
351,1436164607930,0.074220255,9.45171,-0.035314474
352,1436164607947,-2.813187,12.24275,-1.2479776
353,1436164607966,-1.9818004,11.289858,-1.271321
354,1436164607989,-2.0685902,11.035474,-1.2731167
355,1436164608006,-1.9069817,11.297041,-1.4053963
356,1436164608028,-1.103727,9.725247,-1.0474633
357,1436164608047,-0.6697779,7.9870567,-0.61052144
358,1436164608069,-0.81343,6.5840545,-0.1448492
359,1436164608092,-1.2958617,5.592855,0.33399114
360,1436164608109,-1.9015948,5.0517654,0.5847838
361,1436164608129,-2.007538,4.4101195,0.7015011
362,1436164608149,-1.7286136,3.5104983,0.76554596
363,1436164608170,-1.7208325,3.2495303,0.7906851
364,1436164608190,-1.7657237,3.478775,0.82121116
365,1436164608208,-2.3529017,4.3089647,0.92655605
366,1436164608228,-3.104681,5.7999535,0.682946
367,1436164608250,-3.7738605,7.6111674,0.41120413
368,1436164608270,-4.841076,10.153211,0.15801731
369,1436164608286,-5.976526,13.113641,-0.01436521
370,1436164608310,-6.2991447,15.003265,-0.15622166
371,1436164608328,-5.2852,14.796166,-0.037708677
372,1436164608349,-4.537611,13.984532,0.5482722
373,1436164608369,-5.7478795,16.43859,0.6721721
374,1436164608390,-2.7659016,13.709798,1.1605892
375,1436164608409,-0.5758055,9.884461,1.8405426
376,1436164608428,-2.4211364,10.7990465,2.5582044
377,1436164608450,-4.3993454,13.80796,2.183512
378,1436164608470,-3.1842883,12.434885,2.143409
379,1436164608490,-2.405574,10.666168,2.106299
380,1436164608510,-2.8048072,10.866683,1.484405
381,1436164608530,-2.6539726,9.76535,1.0582372
382,1436164608548,-2.2200236,7.739856,0.8888474
383,1436164608619,-1.9482816,6.3805475,0.6961141
384,1436164608620,-1.7010803,5.547964,0.427365
385,1436164608621,-1.4808137,4.638766,0.15143326
386,1436164608667,-1.4407109,3.7870286,-0.031124622
387,1436164608668,-1.7525556,3.4943373,-0.14604631
388,1436164608669,-2.3918076,3.8007953,-0.14664486
389,1436164608689,-2.8868086,4.282628,-0.11611878
390,1436164608707,-2.9831753,4.39755,0.15023616
391,1436164608727,-3.181894,5.1768627,0.44352585
392,1436164608747,-3.3650506,6.5230026,0.7703344
393,1436164608769,-4.144363,8.425196,0.95947635
394,1436164608789,-4.5286326,10.234613,1.2372037
395,1436164608808,-5.039196,11.859678,1.3180081
396,1436164608828,-6.273407,13.379996,1.4137762
397,1436164608848,-6.669049,14.654908,1.2910733
398,1436164608894,-5.003283,14.067731,1.1510124
399,1436164608895,-5.1104236,15.144523,1.0582372
400,1436164608910,-1.7142484,13.048399,0.5859809
401,1436164608930,0.5823896,10.869077,0.45070848
402,1436164608950,-1.6154876,12.418724,-0.09935937
403,1436164608968,-2.8856115,13.319543,-0.89902276
404,1436164608991,-2.815581,12.497134,-1.1402385
405,1436164609010,-3.1561563,12.717999,-1.2856863
406,1436164609030,-2.9735985,12.304401,-1.2455834
407,1436164609051,-1.951873,10.4171715,-0.9331401
