id,attr_time,attr_x,attr_y,attr_z
1,1436619017609,-8.620323,4.433463,-1.13964
2,1436619017627,-8.598177,4.495114,-1.1665748
3,1436619017648,-8.604162,4.4999022,-1.2018893
4,1436619017697,-8.618527,4.507085,-1.1994951
5,1436619017698,-8.622718,4.474763,-1.1845313
6,1436619017710,-8.555081,4.426879,-1.163582
7,1436619017728,-8.624513,4.408922,-1.1749545
8,1436619017750,-8.6334915,4.402937,-1.2012907
9,1436619017771,-8.732851,4.371214,-1.1911154
10,1436619017797,-8.687361,4.365228,-1.1994951
11,1436619017806,-8.6813755,4.3861775,-1.1893197
12,1436619017829,-8.653243,4.3664255,-1.1558008
13,1436619017846,-8.661025,4.361038,-1.13964
14,1436619017868,-8.631097,4.3526587,-1.1378443
15,1436619017888,-8.660426,4.38498,-1.1486182
16,1436619017908,-8.641871,4.407127,-1.158195
17,1436619017960,-8.620922,4.413112,-1.1815386
18,1436619017973,-8.64666,4.4155064,-1.1988965
19,1436619017974,-8.660426,4.421492,-1.1851299
20,1436619017987,-8.622718,4.4101195,-1.1725603
21,1436619018007,-8.620323,4.396353,-1.1803415
22,1436619018027,-8.65863,4.3873744,-1.1755531
23,1436619018048,-8.647258,4.3903675,-1.1779473
24,1436619018070,-8.649054,4.3915644,-1.1887212
25,1436619018087,-8.642469,4.405331,-1.192911
26,1436619018108,-8.647857,4.4047327,-1.2030864
27,1436619018129,-8.630499,4.4400473,-1.1899183
28,1436619018150,-8.62152,4.405331,-1.1869255
29,1436619018168,-8.640076,4.38917,-1.1785458
30,1436619018190,-8.661025,4.385579,-1.1833342
31,1436619018210,-8.647258,4.38498,-1.1917139
32,1436619018230,-8.645462,4.384382,-1.2096704
33,1436619018251,-8.6334915,4.395156,-1.2090719
34,1436619018268,-8.701127,4.380192,-1.1971009
35,1436619018290,-8.662222,4.36044,-1.1911154
36,1436619018310,-8.693346,4.3568487,-1.2012907
37,1436619018330,-8.678981,4.350863,-1.2012907
38,1436619018350,-8.675988,4.3161473,-1.1911154
39,1436619018368,-8.68796,4.297592,-1.2030864
40,1436619018390,-8.689755,4.2796354,-1.198298
41,1436619018410,-8.715493,4.274847,-1.2204443
42,1436619018428,-8.695142,4.268862,-1.2443863
43,1436619018450,-8.680179,4.272453,-1.2557588
44,1436619018468,-8.709507,4.268263,-1.270124
45,1436619018488,-8.71669,4.2784386,-1.2605472
46,1436619018508,-8.673594,4.2479124,-1.2922704
47,1436619018528,-8.683769,4.2491093,-1.2892777
48,1436619018550,-8.804677,4.2221746,-1.3227965
49,1436619018569,-8.830415,4.201824,-1.3096284
50,1436619018588,-8.732851,4.23235,-1.2976574
51,1436619018608,-8.693346,4.250905,-1.3030443
52,1436619018632,-8.6574335,4.26527,-1.2779051
53,1436619018708,-8.661025,4.293402,-1.2725182
54,1436619018709,-8.683769,4.2796354,-1.2743138
55,1436619018710,-8.65863,4.3239284,-1.2503718
56,1436619018711,-8.64666,4.337096,-1.2743138
57,1436619018729,-8.693945,4.3382936,-1.2808979
58,1436619018774,-8.698733,4.3556514,-1.3096284
59,1436619018775,-8.686164,4.3460746,-1.2880806
60,1436619018792,-8.619126,4.332308,-1.3036429
61,1436619018807,-8.65863,4.2634745,-1.2988545
62,1436619018828,-8.720282,4.24492,-1.283292
63,1436619018851,-8.76996,4.2060137,-1.2372037
64,1436619018888,-8.757391,4.2155905,-1.2449849
65,1436619018889,-8.728661,4.244321,-1.2306197
66,1436619018907,-8.678383,4.2820296,-1.2258313
67,1436619018928,-8.682572,4.313753,-1.2042835
68,1436619018948,-8.666411,4.3394904,-1.2270284
69,1436619018968,-8.65025,4.337096,-1.1887212
70,1436619018988,-8.661025,4.311359,-1.1935096
71,1436619019008,-8.677185,4.313753,-1.1911154
72,1436619019028,-8.710705,4.292804,-1.1671734
73,1436619019048,-8.697536,4.3185415,-1.1468226
74,1436619019069,-8.697536,4.298789,-1.1546037
75,1436619019088,-8.686762,4.3263226,-1.1372458
76,1436619019108,-8.671799,4.3514614,-1.1426327
77,1436619019128,-8.665215,4.3275194,-1.1402385
78,1436619019148,-8.666411,4.336498,-1.1168951
79,1436619019168,-8.682572,4.3358994,-1.1252748
80,1436619019188,-8.680777,4.3287168,-1.1216835
81,1436619019208,-8.673594,4.344279,-1.1402385
82,1436619019228,-8.673594,4.335301,-1.1402385
83,1436619019248,-8.671799,4.3646297,-1.151611
84,1436619019268,-8.665215,4.3718123,-1.1330559
85,1436619019288,-8.667608,4.3742065,-1.1456255
86,1436619019307,-8.695142,4.372411,-1.1707647
87,1436619019327,-8.694544,4.35625,-1.1994951
88,1436619019347,-8.675988,4.3502645,-1.2078748
89,1436619019368,-8.704121,4.337096,-1.1976994
90,1436619019387,-8.6712,4.355053,-1.1671734
91,1436619019409,-8.649054,4.32333,-1.1013328
92,1436619019427,-8.65863,4.353257,-1.0773908
93,1436619019447,-8.627506,4.385579,-1.0773908
94,1436619019467,-8.610147,4.421492,-1.1061212
95,1436619019487,-8.613141,4.4544125,-1.1145009
96,1436619019507,-8.634688,4.4484267,-1.1755531
97,1436619019527,-8.619126,4.455011,-1.18094
98,1436619019547,-8.6017685,4.4196963,-1.1731589
99,1436619019567,-8.654441,4.38498,-1.2126632
100,1436619019587,-8.732252,4.338892,-1.1959038
101,1436619019607,-8.793304,4.312556,-1.1887212
102,1436619019627,-8.660426,4.3263226,-1.18094
103,1436619019649,-8.674192,4.3418846,-1.2066777
104,1436619019672,-8.656237,4.325724,-1.1665748
105,1436619019688,-8.689157,4.338892,-1.1312603
106,1436619019711,-8.693346,4.3700166,-1.1498153
107,1436619019729,-8.629301,4.392163,-1.1384429
108,1436619019750,-8.642469,4.417302,-1.1324574
109,1436619019769,-8.672996,4.462792,-1.13964
110,1436619019792,-8.664018,4.453215,-1.1528081
111,1436619019809,-8.611943,4.4322658,-1.1480197
112,1436619019830,-8.646061,4.4167037,-1.1360487
113,1436619019850,-8.6496525,4.3795934,-1.1240777
114,1436619019873,-8.721478,4.3197384,-1.0773908
115,1436619019890,-8.680777,4.3161473,-1.0534488
116,1436619019910,-8.702923,4.3221326,-1.0193313
117,1436619019944,-8.673594,4.336498,-1.0067618
118,1436619019948,-8.658031,4.3526587,-1.0073603
119,1436619019979,-8.640076,4.382586,-1.027711
120,1436619019996,-8.635287,4.4184995,-1.0426749
121,1436619020007,-8.638878,4.435259,-1.0348936
122,1436619020029,-8.6334915,4.4538136,-1.0295067
123,1436619020047,-8.652645,4.450821,-1.0342951
124,1436619020067,-8.6334915,4.4394484,-1.0247183
125,1436619020087,-8.645462,4.4155064,-1.0019734
126,1436619020107,-8.6257105,4.404134,-1.0121487
127,1436619020127,-8.674192,4.396951,-1.0199299
128,1436619020147,-8.639477,4.395156,-0.99658644
129,1436619020167,-8.643666,4.3861775,-1.0145429
130,1436619020187,-8.637083,4.405331,-1.0169371
131,1436619020208,-8.639477,4.3939586,-1.0001777
132,1436619020227,-8.63828,4.408324,-1.0217255
133,1436619020247,-8.652046,4.413711,-1.0283096
134,1436619020267,-8.668207,4.3873744,-1.0372878
135,1436619020287,-8.638878,4.3807907,-1.0324994
136,1436619020307,-8.665813,4.3766007,-1.0444705
137,1436619020332,-8.672996,4.383185,-1.0528502
138,1436619020350,-8.668806,4.3819876,-1.0815806
139,1436619020371,-8.6813755,4.3634324,-1.0899603
140,1436619020392,-8.675988,4.3239284,-1.0857705
141,1436619020410,-8.719683,4.289212,-1.0672154
142,1436619020430,-8.706514,4.2904096,-1.0618285
143,1436619020452,-8.719683,4.2778397,-1.0462662
144,1436619020472,-8.702325,4.295198,-1.0594343
145,1436619020490,-8.74123,4.2898107,-1.0755951
146,1436619020510,-8.69993,4.3119574,-1.0546459
147,1436619020531,-8.704719,4.299388,-1.0187328
148,1436619020552,-8.676587,4.2718544,-1.0528502
149,1436619020569,-8.705916,4.2383356,-1.0402806
150,1436619020598,-8.762778,4.249708,-1.0384849
151,1436619020611,-8.687361,4.2179847,-1.0540473
152,1436619020628,-8.783728,4.197634,-1.0965444
153,1436619020648,-8.820239,4.172495,-1.0761937
154,1436619020668,-8.871715,4.119224,-1.1013328
155,1436619020688,-8.763377,4.127005,-1.0953473
156,1436619020708,-8.774151,4.1012673,-1.0887632
157,1436619020730,-8.771756,4.0958805,-1.0666169
158,1436619020751,-8.750807,4.086902,-1.062427
159,1436619020772,-8.740033,4.1317935,-1.0696096
160,1436619020791,-8.76996,4.1575313,-1.086369
161,1436619020809,-8.766968,4.171298,-1.110311
162,1436619020833,-8.775348,4.1599255,-1.1378443
163,1436619020850,-8.851962,4.1162314,-1.1498153
164,1436619020872,-8.865729,4.051588,-1.2294226
165,1436619020893,-8.918402,3.9612067,-1.3030443
166,1436619020911,-8.784326,3.8786068,-1.3856442
167,1436619020934,-8.876503,3.8905778,-1.3820529
168,1436619020950,-8.768764,3.8714242,-1.4383167
169,1436619020972,-8.705916,4.0001125,-1.4862007
170,1436619020993,-8.723872,4.0773253,-1.5634137
171,1436619021010,-8.629301,4.212598,-1.6196774
172,1436619021032,-8.598177,4.2640734,-1.6837224
173,1436619021050,-8.608353,4.3197384,-1.7340006
174,1436619021074,-8.659827,4.326921,-1.7423803
175,1436619021090,-8.707113,4.2598834,-1.7345991
176,1436619021111,-8.540716,4.2155905,-1.7441759
177,1436619021130,-8.500014,4.2179847,-1.7615339
178,1436619021151,-8.498817,4.1982327,-1.7663223
179,1436619021171,-8.509591,4.3622355,-1.7836803
180,1436619021190,-8.544308,4.507085,-1.8219875
181,1436619021224,-8.517971,4.6561236,-1.8686744
182,1436619021231,-8.485649,4.7536874,-1.780089
183,1436619021249,-8.5383215,4.8189297,-1.6705543
184,1436619021270,-8.356362,4.9853263,-1.6017209
185,1436619021295,-8.322245,5.0236335,-1.4742297
186,1436619021310,-8.027759,5.100847,-1.2940661
187,1436619021331,-7.753622,5.1020436,-1.127669
188,1436619021405,-7.5453267,5.201403,-0.9720459
189,1436619021416,-7.559692,5.2744265,-0.8355764
190,1436619021421,-7.4202294,5.430648,-0.6841431
191,1436619021422,-8.020576,5.571906,-0.46208093
192,1436619021430,-8.463503,5.866991,-0.2896984
193,1436619021450,-8.412027,5.9944825,-0.10235212
194,1436619021474,-7.828441,6.178836,0.08678981
195,1436619021490,-8.020576,6.2434793,0.25079262
196,1436619021511,-7.5267715,6.2105594,0.38187516
197,1436619021530,-7.4363904,6.227917,0.5279215
198,1436619021555,-7.331644,6.1524997,0.6332663
199,1436619021570,-7.0940194,6.071097,0.7206547
200,1436619021590,-6.9467764,6.0381765,0.84814596
201,1436619021611,-6.8599863,6.0148335,0.8822633
202,1436619021630,-6.7881603,6.021417,0.93613285
203,1436619021651,-6.657078,6.132149,0.9648633
204,1436619021670,-6.7199254,6.3697734,0.9720459
205,1436619021699,-6.631939,6.5403605,0.9271546
206,1436619021710,-6.606201,6.7205243,0.90740246
207,1436619021730,-6.630143,6.9024835,0.87448215
208,1436619021750,-6.5481415,7.068282,0.8110358
209,1436619021772,-6.2967505,7.233482,0.76554596
210,1436619021790,-6.3548098,7.4112515,0.6931214
211,1436619021809,-6.7145386,7.5602903,0.6751649
212,1436619021829,-7.349601,7.60997,0.6847417
213,1436619021849,-7.695563,7.475895,0.7015011
214,1436619021872,-8.218098,7.7207017,0.54049104
215,1436619021891,-8.494029,7.5602903,0.46088383
216,1436619021937,-7.240066,7.9427643,-0.034117375
217,1436619021938,-9.348161,8.546103,-0.7667431
218,1436619021957,-10.790668,9.162011,-1.4520833
219,1436619021970,-10.691308,9.698313,-2.0093338
220,1436619021993,-10.323199,10.126276,-2.581548
221,1436619022011,-8.756793,10.16578,-3.1052797
222,1436619022032,-6.6361284,9.646837,-3.752911
223,1436619022052,-5.8203044,8.813655,-4.232949
224,1436619022073,-6.4272346,8.225879,-4.5244427
225,1436619022094,-6.992266,7.8332295,-4.7961845
226,1436619022114,-6.5870476,7.394492,-4.8518496
227,1436619022130,-6.423643,6.989872,-4.724957
228,1436619022153,-6.712743,6.7253127,-4.4783545
229,1436619022174,-7.3083005,6.505645,-4.185065
230,1436619022194,-7.297527,6.187216,-3.845088
231,1436619022213,-6.8893156,5.74369,-3.4081461
232,1436619022234,-6.2686186,5.1798553,-3.015497
233,1436619022254,-6.084265,4.486734,-2.6563668
234,1436619022271,-6.26802,3.8163576,-2.3714569
235,1436619022294,-6.2392898,3.2680852,-2.1092918
236,1436619022314,-6.0746884,2.854487,-1.887828
237,1436619022333,-6.0699,2.5306711,-1.6346412
238,1436619022353,-6.0519433,2.5611973,-1.4431051
239,1436619022374,-6.1967926,2.8532898,-1.3706805
240,1436619022395,-6.7450647,3.0747535,-1.2378023
241,1436619022415,-6.9186444,3.4584243,-1.163582
242,1436619022436,-7.191583,4.079121,-1.0941502
243,1436619022453,-8.185776,4.5016975,-1.0474633
244,1436619022473,-8.885481,4.869208,-1.2216414
245,1436619022491,-10.101735,5.3701944,-1.4772224
246,1436619022513,-10.74817,5.9717374,-1.6915035
247,1436619022541,-11.778873,6.655881,-1.6986861
248,1436619022599,-12.862848,7.2502413,-1.5496471
249,1436619022602,-11.736377,7.463924,-1.3581109
250,1436619022603,-12.0159,7.3507977,-0.97743285
251,1436619022616,-14.035409,6.7348895,-0.08080431
252,1436619022633,-13.310564,6.5523314,1.062427
253,1436619022654,-9.513959,6.7612257,1.8854338
254,1436619022673,-6.640917,6.95336,2.123657
255,1436619022691,-8.726865,6.181829,2.0829554
256,1436619022714,-8.458116,5.957372,2.0081367
257,1436619022734,-6.8462195,5.3288946,1.8339585
258,1436619022752,-6.073491,4.5938745,1.6023195
259,1436619022773,-6.505645,3.643975,1.3443443
260,1436619022794,-6.9144545,2.846706,1.1971009
261,1436619022811,-6.6295447,2.391209,1.1097125
262,1436619022834,-6.129755,2.0009542,1.1043255
263,1436619022855,-5.5766945,1.8375498,1.1911154
264,1436619022874,-5.2444987,1.7812861,1.1994951
265,1436619022895,-5.379771,1.6382325,1.1887212
266,1436619022915,-5.566519,1.6346412,1.0857705
267,1436619022935,-5.816713,1.644218,0.95588505
268,1436619022955,-6.0699,1.8177977,0.8218097
269,1436619022971,-7.0826473,1.8261774,0.748188
270,1436619023018,-7.97748,1.8489223,0.6799533
271,1436619023019,-9.023148,1.982399,0.5626374
272,1436619023052,-10.952874,2.0590134,0.3238158
273,1436619023053,-12.002133,2.3822308,0.095169514
274,1436619023071,-12.071565,2.789245,-0.10115502
275,1436619023092,-12.712612,3.145981,-0.37948096
276,1436619023112,-12.73416,3.5913026,-0.7374141
277,1436619023132,-13.645753,3.8426938,-1.3503298
278,1436619023152,-13.08491,3.8684313,-2.4037786
279,1436619023172,-14.781202,4.1904516,-3.5631707
280,1436619023192,-14.684836,4.973954,-4.7099934
281,1436619023212,-11.374253,5.6964045,-5.7065797
282,1436619023232,-7.784148,6.132149,-6.439804
283,1436619023252,-8.805874,5.48751,-6.6175733
284,1436619023295,-10.943896,3.7128084,-6.0531406
285,1436619023296,-8.746617,3.132813,-5.445013
286,1436619023318,-8.385093,2.2643163,-4.5657425
287,1436619023333,-8.385692,1.5831659,-3.6948519
288,1436619023352,-7.5016327,1.1150994,-2.9759927
289,1436619023372,-6.4960675,0.7697359,-2.3570917
290,1436619023392,-5.955577,0.51355624,-1.8207904
291,1436619023413,-5.478532,0.33758244,-1.401805
292,1436619023432,-5.023035,0.4189853,-1.1791444
293,1436619023453,-4.908712,0.8194155,-1.0049661
294,1436619023472,-5.419874,1.3730747,-0.9564836
295,1436619023497,-6.357204,1.7890673,-0.86849666
296,1436619023512,-7.073669,2.0913353,-0.8535329
297,1436619023532,-7.5136037,2.5875335,-0.9187749
298,1436619023552,-8.713099,3.1531637,-1.0588357
299,1436619023574,-11.28926,3.6733038,-1.2066777
300,1436619023594,-12.572552,4.429273,-1.4987702
301,1436619023615,-12.360664,5.391144,-1.75076
302,1436619023635,-13.818733,6.4062853,-1.8752584
303,1436619023655,-12.597691,6.1285577,-1.4263457
304,1436619023675,-13.197438,6.4338183,-0.7158663
305,1436619023695,-14.138958,6.443395,0.107140526
306,1436619023716,-11.20247,7.563283,0.8451532
307,1436619023733,-8.892065,8.02297,1.4796166
308,1436619023754,-6.4230447,8.565256,1.9033904
309,1436619023773,-7.8302364,7.9385743,2.1027076
310,1436619023794,-6.7881603,7.430405,2.0560207
311,1436619023814,-5.161899,6.3123126,2.023699
312,1436619023834,-5.692813,4.9440265,1.8561049
313,1436619023853,-5.7682304,3.892972,1.584363
314,1436619023873,-4.9302597,3.1028855,1.2773066
315,1436619023894,-4.3263226,2.493561,0.89902276
316,1436619023912,-4.445434,1.9877859,0.6278794
317,1436619023934,-4.648941,1.6502035,0.46447513
318,1436619023955,-4.638766,1.4036007,0.42916065
319,1436619023974,-4.7399206,1.3365631,0.30705637
320,1436619023993,-5.4761376,1.5807717,0.30286652
321,1436619024063,-7.33763,1.7100586,0.480636
322,1436619024064,-9.008782,2.1996727,0.75836337
323,1436619024065,-10.936115,3.0376434,0.7338228
324,1436619024074,-12.068572,3.8217444,0.46806642
325,1436619024104,-12.66832,4.6926355,0.10295067
326,1436619024115,-13.575124,5.433042,-0.2172738
327,1436619024133,-13.342287,6.3218894,-0.47644615
328,1436619024155,-13.025655,7.450157,-1.0360907
329,1436619024173,-11.067198,7.161656,-1.7262194
330,1436619024194,-11.708245,7.067683,-2.8646624
331,1436619024213,-12.072164,6.9862804,-3.9384618
332,1436619024236,-8.889072,7.8092875,-4.8919525
333,1436619024253,-6.6744356,8.242638,-5.8125234
334,1436619024275,-8.39886,7.5016327,-5.9926867
335,1436619024296,-8.593389,6.1381345,-5.817312
336,1436619024315,-6.825869,5.209783,-5.333084
337,1436619024336,-6.7342906,4.308366,-4.8027687
338,1436619024356,-6.8839283,3.6254199,-4.197036
339,1436619024380,-6.685808,3.1310172,-3.6110547
340,1436619024396,-6.2339025,2.819771,-2.9759927
341,1436619024413,-5.563526,2.7126305,-2.6689363
342,1436619024434,-5.0421886,2.64679,-2.4594438
343,1436619024456,-4.7866077,2.5366566,-2.272696
344,1436619024476,-5.241506,2.4133554,-2.0901382
345,1436619024496,-5.559935,2.4211364,-1.9387048
346,1436619024515,-6.10282,2.4127567,-1.8716671
347,1436619024536,-6.611588,2.64679,-1.9219455
348,1436619024556,-7.3340383,3.0388405,-2.2152352
349,1436619024577,-7.8487916,3.4763808,-2.4833858
350,1436619024596,-9.351752,3.9258924,-2.5474305
351,1436619024616,-10.644022,4.372411,-2.7329812
352,1436619024636,-10.497377,5.2768207,-2.825158
353,1436619024656,-11.157578,6.375759,-3.0358477
354,1436619024675,-11.744158,7.6081743,-3.071761
355,1436619024702,-12.121843,8.5473,-3.0262709
356,1436619024798,-11.669938,8.810662,-2.6324248
357,1436619024799,-11.9333,8.520964,-1.9219455
358,1436619024813,-11.647193,8.280347,-0.92655605
359,1436619024814,-9.793482,8.293514,0.0005985504
360,1436619024815,-7.3753386,8.626907,0.70509243
361,1436619024816,-7.235876,8.361151,1.2497733
362,1436619024838,-7.315483,7.4495587,1.6160861
363,1436619024859,-5.922058,6.43322,1.7250223
364,1436619024875,-5.530606,5.075109,1.6663644
365,1436619024903,-6.523601,3.6816838,1.5089456
366,1436619024914,-6.5990186,2.7323828,1.2354081
367,1436619024934,-6.1369376,2.1230583,1.110311
368,1436619024959,-5.514445,1.6400281,1.0342951
369,1436619024977,-5.1660886,1.3640964,0.92535895
370,1436619024994,-5.085883,1.2791022,0.7326257
371,1436619025017,-5.031415,1.2132617,0.516549
372,1436619025051,-5.3624134,1.3192052,0.31483752
373,1436619025054,-5.9047,1.9135658,0.19991584
374,1436619025077,-7.019799,2.5067291,0.23163901
375,1436619025094,-7.807492,2.9777884,0.2741361
376,1436619025114,-8.593987,3.233968,0.34237084
377,1436619025134,-9.781511,3.9055414,0.29927522
378,1436619025154,-11.046248,4.6399627,0.025139118
379,1436619025175,-12.30081,5.0810947,-0.30047232
380,1436619025196,-12.917316,5.514445,-0.74639237
381,1436619025216,-12.90774,6.2865753,-1.5143325
382,1436619025236,-13.511678,7.1580644,-2.348712
383,1436619025255,-12.4702,7.1981673,-3.084929
384,1436619025276,-12.092514,7.252037,-3.721188
385,1436619025296,-10.889428,7.2951326,-4.433463
386,1436619025317,-8.309077,7.8613615,-5.2355204
387,1436619025337,-6.1782374,8.219295,-5.9226565
388,1436619025358,-7.8589673,7.3591776,-6.0411696
389,1436619025377,-8.66282,5.831677,-5.6982
390,1436619025397,-7.2849574,4.9757495,-5.2498856
391,1436619025415,-7.299921,4.023456,-4.76506
392,1436619025435,-7.574057,3.2674868,-4.1635165
393,1436619025455,-7.4088573,2.759916,-3.6050692
394,1436619025478,-6.835446,2.4331074,-3.1531637
395,1436619025540,-6.0321913,2.2637177,-2.8293478
396,1436619025541,-5.5365915,2.0937295,-2.5031378
397,1436619025542,-5.2618566,1.934515,-2.2828712
398,1436619025555,-5.227141,2.0189106,-2.191293
399,1436619025579,-5.6880245,2.2661119,-2.146402
400,1436619025609,-6.479907,2.6102784,-2.1122844
401,1436619025615,-6.952163,2.837129,-2.034473
402,1436619025634,-6.9581485,3.3321302,-2.1206641
403,1436619025659,-7.482479,3.9193082,-2.2002714
404,1436619025677,-8.664018,4.4556093,-2.2457612
405,1436619025696,-9.8198185,5.108628,-2.219425
406,1436619025719,-10.222044,5.9729347,-2.1883004
407,1436619025738,-11.145009,7.101202,-2.088941
408,1436619025757,-12.4702,8.502409,-2.054225
409,1436619025775,-11.516708,8.595782,-1.8291701
410,1436619025796,-10.8229885,8.539519,-1.364695
411,1436619025814,-12.126033,7.8823104,-0.623091
412,1436619025836,-9.680356,8.382699,0.3537433
413,1436619025858,-7.643489,8.723872,1.2749124
414,1436619025879,-7.031172,8.682572,1.9500773
